CpuMaxMemory,EpLenMean,EpRewMean,GpuMaxMemory,IPS_total,Iter,Misc/FrameRewMean,Misc/InteractCount,Misc/TimeElapsed,Opt/approxkl,Opt/clipfrac,Opt/entropy,Opt/loss_pi,Opt/loss_vf,Opt/negent,Opt/pg,Opt/pi_kl,VFStats/AdvMean,VFStats/AdvStd,VFStats/EV,VFStats/VpredMean,VFStats/VpredStd,VFStats/VtargMean,VFStats/VtargStd,del_time,wait_optimization,scaled/pol_distance,scaled/vf_aux,scaled/vf_true,unscaled/pol_distance,unscaled/vf_aux,unscaled/vf_true
2364604000.0,82.05,-2.4200000762939453,6317166080.0,3617.992888210118,0.0,-0.013642079196870327,16384.0,4.528477668762207,0.00206802599132061,0.0120849609375,2.7063026428222656,-0.026815887540578842,0.16791656613349915,-0.027063023298978806,0.0002471389016136527,0.0,-0.21911457180976868,0.5779918432235718,-0.0021984621558366335,0.06346778571605682,0.017272546887397766,-0.15564677119255066,0.5773575305938721,4.528477668762207,2.746994733810425,,,,,,
2563772000.0,88.93,-2.890000104904175,6519754752.0,3520.8224900704568,1.0,-0.014368440955877304,32768.0,9.181935787200928,0.0010083891684189439,0.0009765625,2.70550537109375,-0.026922179386019707,0.17498305439949036,-0.027055054903030396,0.00013287272304296494,0.0,-0.17979927361011505,0.5729414224624634,0.0028835188861628946,-0.13349047303199768,0.01637306809425354,-0.3132897615432739,0.5737692713737488,4.653458118438721,2.741832971572876,,,,,,
2761772000.0,87.99,-2.1700000762939453,6519754752.0,3559.965845203819,2.0,-0.012039251625537872,49152.0,13.784227132797241,0.00031883479095995426,0.0,2.702213764190674,-0.026924993842840195,0.15472272038459778,-0.027022138237953186,9.714462794363499e-05,0.0,-0.12792350351810455,0.5456043481826782,0.00120457284483233,-0.2362533062696457,0.03190325200557709,-0.36417680978775024,0.545933187007904,4.6022913455963135,2.739420175552368,,,,,,
2960036000.0,86.33,-2.4700000286102295,6519754752.0,3505.755550456277,3.0,-0.013049671426415443,65536.0,18.457684755325317,0.0018235428724437952,0.010498046875,2.691405773162842,-0.027734236791729927,0.15603801608085632,-0.02691405825316906,-0.0008201785385608673,0.0,-0.10423541814088821,0.5567034482955933,0.009925939646265092,-0.37010490894317627,0.04287821426987648,-0.4743403196334839,0.5594870448112488,4.673457622528076,2.7458512783050537,,,,,,
3157772000.0,83.69,-2.4000000953674316,6519754752.0,3579.5439763764966,4.0,-0.01003237348049879,81920.0,23.034804105758667,0.0011615143157541752,0.00164794921875,2.695049524307251,-0.026361074298620224,0.14303521811962128,-0.026950495317578316,0.0005894210189580917,0.0,-0.027997007593512535,0.5259969830513,0.019853796588387596,-0.5656110048294067,0.060778114944696426,-0.593608021736145,0.5312975645065308,4.57711935043335,2.7451260089874268,,,,,,
3355508000.0,90.62,-2.5999999046325684,6519754752.0,3571.444438669849,5.0,-0.011196056380867958,98304.0,27.62230372428894,0.0003026802442036569,0.0,2.6937851905822754,-0.026869431138038635,0.15797334909439087,-0.026937853544950485,6.842194125056267e-05,0.0,-0.03552055358886719,0.5561338663101196,0.031991109161533804,-0.5619277954101562,0.055710699409246445,-0.5974483489990234,0.5652488470077515,4.587499618530273,2.747053861618042,,,,,,
3553508000.0,81.03,-2.0,6519754752.0,3550.615029694259,6.0,-0.010471161454916,114688.0,32.23671555519104,0.0011782462242990732,0.00653076171875,2.695209503173828,-0.026693644002079964,0.12789608538150787,-0.026952093467116356,0.000258447602391243,0.0,-0.02964230254292488,0.503478467464447,0.03788273091614913,-0.4927269220352173,0.06109049543738365,-0.5223692059516907,0.5132948756217957,4.6144118309021,2.7554314136505127,,,,,,
3752564000.0,77.61,-2.1600000858306885,6519754752.0,3510.492464541815,7.0,-0.013150856830179691,131072.0,36.90386700630188,0.000283782952465117,0.0,2.6971869468688965,-0.02659495361149311,0.1618037223815918,-0.026971867308020592,0.0003769155591726303,0.0,-0.06532827019691467,0.5643839836120605,0.042802895180467204,-0.4416773021221161,0.06759464740753174,-0.5070055723190308,0.5768647789955139,4.66715145111084,2.7614707946777344,,,,,,
3949508000.0,76.87,-1.7300000190734863,6519754752.0,3589.2189496116725,8.0,-0.010824419558048248,147456.0,41.4686484336853,0.0018939860165119171,0.0128173828125,2.6865158081054688,-0.027293287217617035,0.13538780808448792,-0.026865154504776,-0.00042813457548618317,0.0,-0.021242432296276093,0.5186542272567749,0.0730233432513151,-0.4787391126155853,0.08362896740436554,-0.499981552362442,0.5386956334114075,4.564781427383423,2.7670083045959473,,,,,,
4147244000.0,84.52,-1.649999976158142,6519754752.0,3599.3450491370386,9.0,-0.012561306357383728,163840.0,46.020587682724,0.000804115436039865,0.00140380859375,2.6928534507751465,-0.026810944080352783,0.16604018211364746,-0.026928532868623734,0.00011758634354919195,0.0,-0.023045016452670097,0.5725370645523071,0.1377199621779822,-0.6298902034759521,0.13508756458759308,-0.652935266494751,0.6165658831596375,4.551939249038696,2.7644476890563965,,,,,,
4345244000.0,81.53,-2.549999952316284,6519754752.0,3567.9636962121613,10.0,-0.0123185645788908,180224.0,50.61256265640259,0.0021066814661026,0.01080322265625,2.679751396179199,-0.026164624840021133,0.15619120001792908,-0.02679751254618168,0.0006328905001282692,0.0,-0.02239840105175972,0.5549261569976807,0.17889819957948083,-0.5802624821662903,0.1794961839914322,-0.6026608943939209,0.612402081489563,4.591974973678589,2.7735371589660645,,,,,,
4542980000.0,77.26,-1.9500000476837158,6519754752.0,3530.519743318163,11.0,-0.010343950241804123,196608.0,55.253239154815674,0.0021071878727525473,0.0194091796875,2.6799232959747314,-0.026915201917290688,0.1348443478345871,-0.026799233630299568,-0.00011596828699111938,0.0,0.03403817117214203,0.5228675603866577,0.2773016605428166,-0.7202171683311462,0.2852528691291809,-0.686178982257843,0.6150538921356201,4.640676498413086,2.765515089035034,,,,,,
4740980000.0,79.64,-1.7400000095367432,6519754752.0,3614.044495053607,12.0,-0.011623396538197994,212992.0,59.78666424751282,0.0012102914042770863,0.00811767578125,2.6698384284973145,-0.027425557374954224,0.13177770376205444,-0.026698382571339607,-0.0007271738722920418,0.0,0.004868726246058941,0.5211709141731262,0.3271827087874558,-0.6312236785888672,0.29014939069747925,-0.6263549327850342,0.6353772282600403,4.5334250926971436,2.77250075340271,,,,,,
4939772000.0,80.89,-1.9900000095367432,6519754752.0,3507.1597095731186,13.0,-0.010495769791305065,229376.0,64.4582507610321,0.0038533187471330166,0.02020263671875,2.644935369491577,-0.026706509292125702,0.1564330905675888,-0.026449350640177727,-0.000257155392318964,0.0,0.01720556616783142,0.5372114181518555,0.40544819469880233,-0.6190903782844543,0.4121304154396057,-0.6018848419189453,0.6967073678970337,4.671586513519287,2.77467679977417,,,,,,
5136716000.0,76.94,-1.7100000381469727,6519754752.0,3569.929552888374,14.0,-0.010579120367765427,245760.0,69.04769706726074,0.0011335008312016726,0.000244140625,2.643979072570801,-0.02673341892659664,0.14173944294452667,-0.026439789682626724,-0.00029363296926021576,0.0,0.09609514474868774,0.5445913672447205,0.43111505578089526,-0.8237876892089844,0.4927977919578552,-0.7276925444602966,0.7220354676246643,4.589446306228638,2.774528741836548,,,,,,
5334452000.0,77.04,-1.440000057220459,6519754752.0,3550.460017780335,15.0,-0.008560927584767342,262144.0,73.66231036186218,0.0026847892440855503,0.0162353515625,2.6054389476776123,-0.02574501559138298,0.1014835461974144,-0.026054389774799347,0.0003093704581260681,0.0,0.07806262373924255,0.44941630959510803,0.43007615234176666,-0.6418803930282593,0.3844258189201355,-0.5638177394866943,0.5953062176704407,4.61461329460144,2.784047842025757,,,,,,
5532452000.0,76.46,-2.1600000858306885,6519754752.0,3541.4940691891175,16.0,-0.01293121837079525,278528.0,78.28860640525818,0.002170360879972577,0.01025390625,2.620812177658081,-0.026230979710817337,0.134464830160141,-0.026208119466900826,-2.2857682779431343e-05,0.0,0.023455079644918442,0.5169581174850464,0.48582993304841937,-0.6514772176742554,0.449116975069046,-0.6280220746994019,0.7209446430206299,4.626296043395996,2.794828414916992,,,,,,
5730188000.0,76.4,-1.3600000143051147,6519754752.0,3555.9332448137934,17.0,-0.00831798929721117,294912.0,82.8961169719696,0.0027858070097863674,0.01611328125,2.5973000526428223,-0.026325535029172897,0.0990058034658432,-0.0259730014950037,-0.0003525353968143463,0.0,0.06762129068374634,0.43056657910346985,0.5682806582596199,-0.5677306652069092,0.5158054828643799,-0.5001093745231628,0.6552991271018982,4.607510566711426,2.8060293197631836,,,,,,
5928188000.0,75.33,-1.7200000286102295,6519754752.0,3580.7916129635023,18.0,-0.011004775762557983,311296.0,87.47164154052734,0.0012629120610654354,0.008544921875,2.592189073562622,-0.026023413985967636,0.10063248127698898,-0.025921892374753952,-0.00010152161121368408,0.0,-0.022774210199713707,0.4447329342365265,0.4988056038192542,-0.3541836738586426,0.3827316462993622,-0.37695789337158203,0.628197431564331,4.575524568557739,2.8085808753967285,,,,,,
6126980000.0,73.36,-1.4800000190734863,6519754752.0,3432.037632838897,19.0,-0.009038683027029037,327680.0,92.24548196792603,0.0030788108706474304,0.0078125,2.523075580596924,-0.024706628173589706,0.08308105915784836,-0.025230756029486656,0.0005241301842033863,0.0,0.006317064631730318,0.4036838710308075,0.5136839683534735,-0.3216586410999298,0.3893136978149414,-0.315341591835022,0.578871488571167,4.773840427398682,2.861238718032837,,,,,,
6323924000.0,76.25,-1.8200000524520874,6519754752.0,3546.2658978628424,20.0,-0.009671053849160671,344064.0,96.86555290222168,0.0024691366124898195,0.02728271484375,2.579618215560913,-0.02522166818380356,0.09967809170484543,-0.025796180590987206,0.0005745147354900837,0.0,0.011584787629544735,0.4366678297519684,0.5697069152591794,-0.347570538520813,0.4522304832935333,-0.3359857201576233,0.6656854152679443,4.620070934295654,2.789217472076416,,,,,,
6521660000.0,75.71,-1.2999999523162842,6519754752.0,3486.1296556888087,21.0,-0.008973677642643452,360448.0,101.56532073020935,0.007407021708786488,0.05609130859375,2.49137544631958,-0.023555684834718704,0.08187098801136017,-0.02491375058889389,0.0013580657541751862,0.0,0.04698663949966431,0.40575504302978516,0.626034853044761,-0.4163324534893036,0.5391687750816345,-0.3693458139896393,0.6635114550590515,4.699767827987671,2.8033008575439453,,,,,,
6719660000.0,76.21,-1.8799999952316284,6519754752.0,3596.5623226139924,22.0,-0.009800166822969913,376832.0,106.12078189849854,0.0015320933889597654,0.0084228515625,2.5702497959136963,-0.02480897307395935,0.10509966313838959,-0.025702496990561485,0.0008935201913118362,0.0,0.023433849215507507,0.4587855935096741,0.5906059167464963,-0.3815661072731018,0.5389754176139832,-0.3581322431564331,0.7170327305793762,4.555461168289185,2.782745361328125,,,,,,
6917396000.0,76.68,-1.5399999618530273,6519754752.0,3590.161958496325,23.0,-0.008508414961397648,393216.0,110.68436431884766,0.008099360391497612,0.05987548828125,2.486565351486206,-0.023976972326636314,0.08215464651584625,-0.0248656515032053,0.0008886847645044327,0.0,0.03534034639596939,0.3653286397457123,0.6872068393238877,-0.3815697729587555,0.5410423874855042,-0.3462294340133667,0.6532134413719177,4.563582420349121,2.7893927097320557,,,,,,
7115132000.0,77.38,-1.409999966621399,6519754752.0,3557.6467797253176,24.0,-0.009310304187238216,409600.0,115.2896556854248,0.002561307745054364,0.0198974609375,2.538757562637329,-0.026154998689889908,0.10309387743473053,-0.02538757398724556,-0.0007674200460314751,0.0,0.052695177495479584,0.43892210721969604,0.6472358097018499,-0.49774831533432007,0.6006105542182922,-0.4450531303882599,0.7390012741088867,4.605291366577148,2.818875312805176,,,,,,
7313924000.0,76.4,-1.2799999713897705,6519754752.0,3506.7978270751755,25.0,-0.0067239003255963326,425984.0,119.96172428131104,0.003535202471539378,0.03411865234375,2.4751222133636475,-0.025751665234565735,0.06975296884775162,-0.024751223623752594,-0.0010004425421357155,0.0,0.07583437860012054,0.36750584840774536,0.670430397788562,-0.43667376041412354,0.5482226014137268,-0.3608393967151642,0.6401631832122803,4.6720685958862305,2.820706844329834,,,,,,
7511132000.0,72.26,-1.3600000143051147,6519754752.0,3580.0547512903167,26.0,-0.01008387841284275,442368.0,124.53819060325623,0.005483441520482302,0.0703125,2.5061655044555664,-0.0238505769520998,0.07573775947093964,-0.025061655789613724,0.001211077906191349,0.0,0.05441795289516449,0.37228164076805115,0.7347158477765697,-0.4790358543395996,0.6174167990684509,-0.4246178865432739,0.7227963209152222,4.57646632194519,2.802854299545288,,,,,,
7708868000.0,72.82,-1.7999999523162842,6519754752.0,3523.6930027805183,27.0,-0.009472769685089588,458752.0,129.18785786628723,0.004339801147580147,0.04022216796875,2.4358205795288086,-0.025464903563261032,0.07077480852603912,-0.024358203634619713,-0.0011067017912864685,0.0,0.03987906873226166,0.366505891084671,0.7419599630579512,-0.4343056380748749,0.6202788352966309,-0.3944265842437744,0.7215018272399902,4.649667263031006,2.8929574489593506,,,,,,
7906868000.0,75.14,-0.949999988079071,6519754752.0,3538.918863178546,28.0,-0.005935667082667351,475136.0,133.81752038002014,0.0014783686492592096,0.0003662109375,2.462306261062622,-0.023777319118380547,0.04900219663977623,-0.02462306246161461,0.0008457424119114876,0.0,0.0585007444024086,0.3071252703666687,0.7607789995434396,-0.3397725820541382,0.5682699680328369,-0.2812718152999878,0.6279367804527283,4.62966251373291,2.806039571762085,,,,,,
8104604000.0,75.4,-1.659999966621399,6519754752.0,3566.769226042036,29.0,-0.009917041286826134,491520.0,138.41103315353394,0.0035725466441363096,0.02099609375,2.419661045074463,-0.025657549500465393,0.056718483567237854,-0.02419661171734333,-0.0014609419740736485,0.0,-0.010249302722513676,0.33515796065330505,0.7473557690365642,-0.24880820512771606,0.5588942766189575,-0.25905752182006836,0.6667988896369934,4.593512773513794,2.8028736114501953,,,,,,
8302340000.0,74.65,-1.5299999713897705,6519754752.0,3604.0235062580264,30.0,-0.009945173747837543,507904.0,142.95706343650818,0.005400976166129112,0.0557861328125,2.3606700897216797,-0.02303258515894413,0.05320224538445473,-0.02360670268535614,0.0005741186905652285,0.0,-0.013195033185184002,0.32631343603134155,0.7453228961808847,-0.2082746922969818,0.5150315761566162,-0.2214697152376175,0.6466063857078552,4.546030282974243,2.8039212226867676,,,,,,
8501132000.0,74.99,-1.4700000286102295,6519754752.0,3546.0020244151733,31.0,-0.009281647391617298,524288.0,147.5774781703949,0.0005427353316918015,0.001220703125,2.4493300914764404,-0.023942697793245316,0.05823154374957085,-0.024493299424648285,0.0005506053566932678,0.0,-0.013699794188141823,0.3281964957714081,0.7559729433848923,-0.2090541422367096,0.5519435405731201,-0.22275392711162567,0.6643775701522827,4.620414733886719,2.7871062755584717,,,,,,
,,,,,,,,,,,,,,,,,,,,,,,,,,0.001588589744642377,0.14731237292289734,0.12152493000030518,0.001588589744642377,0.14731237292289734,0.12152493000030518
,,,,,,,,,,,,,,,,,,,,,,,,,,0.001240517944097519,0.10147421807050705,0.09849218279123306,0.001240517944097519,0.10147421807050705,0.09849218279123306
,,,,,,,,,,,,,,,,,,,,,,,,,,0.0011678447481244802,0.09135549515485764,0.09100888669490814,0.0011678447481244802,0.09135549515485764,0.09100888669490814
,,,,,,,,,,,,,,,,,,,,,,,,,,0.0009709754958748817,0.0864151194691658,0.08588527143001556,0.0009709754958748817,0.0864151194691658,0.08588527143001556
,,,,,,,,,,,,,,,,,,,,,,,,,,0.0008609211654402316,0.08382528275251389,0.0832318440079689,0.0008609211654402316,0.08382528275251389,0.0832318440079689
,,,,,,,,,,,,,,,,,,,,,,,,,,0.0010072318837046623,0.08186910301446915,0.08124933391809464,0.0010072318837046623,0.08186910301446915,0.08124933391809464
8513332000.0,74.56,-1.5700000524520874,6327188480.0,27.86708476976908,32.0,-0.00913686491549015,540672.0,735.5112407207489,0.00384440366178751,0.033935546875,2.39245343208313,-0.025145022198557854,0.04799039661884308,-0.023924535140395164,-0.0012204893864691257,0.0,0.04993410408496857,0.3171142637729645,0.7941512943471005,-0.4002076983451843,0.5885557532310486,-0.35027360916137695,0.6989428997039795,587.933762550354,2.7986438274383545,,,,,,
8513332000.0,76.09,-0.9399999976158142,6529777152.0,3521.8797025997997,33.0,-0.007390851154923439,557056.0,740.1633019447327,0.0041324603371322155,0.0277099609375,2.472043752670288,-0.02157592959702015,0.03576655313372612,-0.024720437824726105,0.003144511952996254,0.0,0.056853700429201126,0.2848665118217468,0.8234410557495246,-0.30526015162467957,0.6228089928627014,-0.24840645492076874,0.6779482960700989,4.652061223983765,2.7951760292053223,,,,,,
8513332000.0,75.27,-1.309999942779541,6529777152.0,3468.4315930695243,34.0,-0.010602330788969994,573440.0,744.8870508670807,0.001719751046039164,0.01031494140625,2.3636631965637207,-0.02442999556660652,0.03692668303847313,-0.023636629804968834,-0.0007933666929602623,0.0,-0.0011062391567975283,0.27749282121658325,0.8760425929140316,-0.2944898307323456,0.7169162034988403,-0.29559606313705444,0.788162112236023,4.7237489223480225,2.9189395904541016,,,,,,
8513332000.0,72.29,-1.090000033378601,6529777152.0,3564.575708051142,35.0,-0.010317284613847733,589824.0,749.4833903312683,0.002594324294477701,0.01385498046875,2.4234728813171387,-0.0232363473623991,0.034021731466054916,-0.024234725162386894,0.000998377799987793,0.0,0.029168909415602684,0.25937962532043457,0.8781158080766212,-0.2584596276283264,0.7116567492485046,-0.22929070889949799,0.7429543733596802,4.596339464187622,2.795011043548584,,,,,,
8513332000.0,73.8,-1.100000023841858,6529777152.0,3505.888975935909,36.0,-0.009013300761580467,606208.0,754.1566700935364,0.001035499619320035,0.00384521484375,2.396456480026245,-0.02467576414346695,0.024842113256454468,-0.023964567109942436,-0.0007111961022019386,0.0,0.009394833818078041,0.2280218005180359,0.8914929412572767,-0.20755189657211304,0.6559421420097351,-0.19815707206726074,0.6922250986099243,4.673279762268066,2.7743706703186035,,,,,,
8513332000.0,71.69,-1.440000057220459,6529777152.0,3579.1664434965783,37.0,-0.008042878471314907,622592.0,758.7342722415924,0.002498077927157283,0.01226806640625,2.4690654277801514,-0.025057019665837288,0.03357512876391411,-0.024690652266144753,-0.0003663664683699608,0.0,0.01716715283691883,0.2618357837200165,0.8722226058948078,-0.24637453258037567,0.7039943933486938,-0.2292073667049408,0.7324904799461365,4.57760214805603,2.7852349281311035,,,,,,
8513332000.0,73.46,-1.0,6529777152.0,3463.030145020027,38.0,-0.006829216144979,638976.0,763.4653890132904,0.002657938050106168,0.01824951171875,2.395348072052002,-0.024914365261793137,0.028482288122177124,-0.023953478783369064,-0.0009608841501176357,0.0,0.015664391219615936,0.24335877597332,0.8705200435619526,-0.23520824313163757,0.6600921154022217,-0.21954385936260223,0.6763099431991577,4.731116771697998,2.7751998901367188,,,,,,
8513332000.0,74.02,-1.1200000047683716,6529777152.0,3527.63049616665,39.0,-0.00606943666934967,655360.0,768.1098663806915,0.004524007439613342,0.0450439453125,2.4892919063568115,-0.02557283081114292,0.030468514189124107,-0.02489291876554489,-0.0006799176335334778,0.0,-0.008946603164076805,0.24102605879306793,0.8501124840454058,-0.1160888597369194,0.5624611377716064,-0.12503546476364136,0.6225600838661194,4.644477367401123,2.7836711406707764,,,,,,
8513332000.0,76.72,-0.7400000095367432,6529777152.0,3545.906329671593,40.0,-0.005051273852586746,671744.0,772.7304058074951,0.002326568588614464,0.02001953125,2.4651215076446533,-0.02376645803451538,0.03293785825371742,-0.024651214480400085,0.0008847564458847046,0.0,-0.008224090561270714,0.260275274515152,0.8792419380068481,-0.19772113859653473,0.6970771551132202,-0.20594525337219238,0.7489879131317139,4.620539426803589,2.7811992168426514,,,,,,
8513332000.0,75.92,-0.33000001311302185,6529777152.0,3548.2694689534383,41.0,-0.0041817291639745235,688128.0,777.3478679656982,0.006510304287075996,0.0667724609375,2.5002994537353516,-0.024006733670830727,0.026002224534749985,-0.025002995505928993,0.000996260903775692,0.0,0.03133600950241089,0.23468974232673645,0.8877208270261236,-0.18085452914237976,0.6733006238937378,-0.14951850473880768,0.7003974318504333,4.617462158203125,2.789278268814087,,,,,,
8513332000.0,72.85,-0.8799999952316284,6529777152.0,3602.8332963889816,42.0,-0.0053265830501914024,704512.0,781.8954000473022,0.00487031415104866,0.045654296875,2.449100971221924,-0.023240946233272552,0.02987612597644329,-0.02449101023375988,0.0012500640004873276,0.0,0.0033347089774906635,0.2483636885881424,0.8602899473277635,-0.1552358865737915,0.6290487051010132,-0.15190118551254272,0.6644682884216309,4.547532081604004,2.7846622467041016,,,,,,
8513332000.0,74.78,-0.3100000023841858,6529777152.0,3566.079205443273,43.0,-0.0030960161238908768,720896.0,786.4898016452789,0.00541467173025012,0.0623779296875,2.464808464050293,-0.022500060498714447,0.027610432356595993,-0.02464807964861393,0.0021480191498994827,0.0,0.010658161714673042,0.23364406824111938,0.8842525763053226,-0.10811429470777512,0.6433167457580566,-0.09745613485574722,0.6867507100105286,4.594401597976685,2.7913711071014404,,,,,,
8513332000.0,77.96,-0.49000000953674316,6529777152.0,3598.17149166707,44.0,-0.003241659374907613,737280.0,791.0432255268097,0.004589373245835304,0.0413818359375,2.43245005607605,-0.024136068299412727,0.028205934911966324,-0.024324500933289528,0.00018843170255422592,0.0,-0.002758253365755081,0.23862051963806152,0.8633474706622424,-0.09796086698770523,0.6007805466651917,-0.10071911662817001,0.6455040574073792,4.553423881530762,2.783362865447998,,,,,,
8513332000.0,75.73,-0.2800000011920929,6529777152.0,3541.763661032289,45.0,-0.0011408060090616345,753664.0,795.6691694259644,0.007867122069001198,0.07977294921875,2.4454195499420166,-0.019731666892766953,0.02803065814077854,-0.02445419691503048,0.004722530022263527,0.0,0.01078924909234047,0.2397310435771942,0.8320978222025389,-0.04859344661235809,0.5289639830589294,-0.037804197520017624,0.5850542783737183,4.625943899154663,2.7887489795684814,,,,,,
8513332000.0,78.81,-0.05000000074505806,6529777152.0,3483.7819506985334,46.0,0.0010817190632224083,770048.0,800.3721044063568,0.007115202955901623,0.06787109375,2.5023858547210693,-0.023933973163366318,0.026992041617631912,-0.02502385526895523,0.0010898839682340622,0.0,0.023122746497392654,0.23975756764411926,0.7971838004239227,0.016720278188586235,0.5192142724990845,0.03984302654862404,0.5323790907859802,4.702934980392456,2.8622658252716064,,,,,,
8513332000.0,78.71,0.029999999329447746,6529777152.0,3585.676736988452,47.0,0.0017143837176263332,786432.0,804.9413952827454,0.005325828678905964,0.05621337890625,2.471536636352539,-0.02345762588083744,0.027022356167435646,-0.02471536584198475,0.0012577425222843885,0.0,0.024191319942474365,0.2432853877544403,0.717170227013916,0.026219677180051804,0.45430803298950195,0.05041100084781647,0.45746034383773804,4.56929087638855,2.7881827354431152,,,,,,
8513332000.0,76.73,0.18000000715255737,6529777152.0,3558.6692803820856,48.0,0.0007290566572919488,802816.0,809.5453634262085,0.008820528164505959,0.087646484375,2.4711711406707764,-0.0210604015737772,0.028501134365797043,-0.02471170946955681,0.003651306265965104,0.0,0.008036304265260696,0.2399769276380539,0.7770273856901544,0.005861192941665649,0.4296920597553253,0.013897497206926346,0.5082105994224548,4.603968143463135,2.7936816215515137,,,,,,
8513332000.0,77.99,0.2800000011920929,6529777152.0,3597.579067165564,49.0,0.0004661728744395077,819200.0,814.0995371341705,0.005456230603158474,0.06072998046875,2.4747116565704346,-0.0231555737555027,0.026747610419988632,-0.02474711462855339,0.0015915371477603912,0.0,0.017364606261253357,0.21993471682071686,0.7665999195476665,0.03166515380144119,0.381046324968338,0.04902976006269455,0.45524299144744873,4.554173707962036,2.8025078773498535,,,,,,
8513332000.0,73.79,0.3400000035762787,6529777152.0,3570.7578032979673,50.0,0.0021062889136373997,835584.0,818.6879189014435,0.012809298932552338,0.12457275390625,2.489694356918335,-0.02222069352865219,0.056559473276138306,-0.02489694207906723,0.002676248550415039,0.0,0.017393790185451508,0.32193493843078613,0.6119164600600048,0.08019206672906876,0.4190875291824341,0.09758585691452026,0.5167797803878784,4.588381767272949,2.7840349674224854,,,,,,
8513332000.0,77.8,-0.05000000074505806,6529777152.0,3537.2544517525266,51.0,0.0003021011361852288,851968.0,823.3197598457336,0.003483881475403905,0.03131103515625,2.4988319873809814,-0.02423456683754921,0.047868192195892334,-0.024988321587443352,0.0007537528872489929,0.0,-0.03239745274186134,0.30596664547920227,0.6812508705895726,0.1258103996515274,0.4351687431335449,0.09341295063495636,0.5419379472732544,4.631840944290161,2.7930500507354736,,,,,,
8513332000.0,82.15,0.5,6529777152.0,3483.6461407780916,52.0,0.004147745668888092,868352.0,828.0228781700134,0.008293491788208485,0.0833740234375,2.4587814807891846,-0.02332930639386177,0.031206464394927025,-0.02458781562745571,0.0012585073709487915,0.0,0.009411167353391647,0.25004225969314575,0.7765875073582673,0.161037415266037,0.4896591305732727,0.17044857144355774,0.5290048718452454,4.703118324279785,2.8677632808685303,,,,,,
8513332000.0,84.35,0.6600000262260437,6529777152.0,3526.509383218973,53.0,0.004536768421530724,884736.0,832.6688320636749,0.004516067449003458,0.0496826171875,2.5141425132751465,-0.02486594021320343,0.028825100511312485,-0.025141429156064987,0.000275488942861557,0.0,0.019542962312698364,0.2377367615699768,0.7886280303446054,0.12101014703512192,0.46199604868888855,0.14055311679840088,0.5170977711677551,4.645953893661499,2.8235654830932617,,,,,,
8513332000.0,78.56,0.49000000953674316,6529777152.0,3575.8710299632903,54.0,0.004728306084871292,901120.0,837.2506527900696,0.004743187688291073,0.05364990234375,2.496955156326294,-0.025972001254558563,0.027284473180770874,-0.024969547986984253,-0.0010024532675743103,0.0,0.016963481903076172,0.22284671664237976,0.7758395807432821,0.15406426787376404,0.40628859400749207,0.1710277646780014,0.47068116068840027,4.581820726394653,2.7853810787200928,,,,,,
8513332000.0,88.01,1.2400000095367432,6529777152.0,3514.754421082754,55.0,0.006483816541731358,917504.0,841.9121448993683,0.00521160289645195,0.0543212890625,2.5085582733154297,-0.022948836907744408,0.028720645233988762,-0.025085583329200745,0.0021367408335208893,0.0,0.03684719651937485,0.23451443016529083,0.7831114196046551,0.19645361602306366,0.4147171676158905,0.2333008050918579,0.503559947013855,4.661492109298706,2.785604953765869,,,,,,
8513332000.0,77.29,1.2000000476837158,6529777152.0,3475.0890921119026,56.0,0.008594583719968796,933888.0,846.6268441677094,0.005429444834589958,0.06103515625,2.503376007080078,-0.02424933761358261,0.031231770291924477,-0.025033757090568542,0.0007844194769859314,0.0,0.06522167474031448,0.24728402495384216,0.7065012315502441,0.14815810322761536,0.39207732677459717,0.21337978541851044,0.4564496874809265,4.7146992683410645,2.7986886501312256,,,,,,
8513332000.0,78.07,1.100000023841858,6529777152.0,3528.633457789813,57.0,0.007793746888637543,950272.0,851.270001411438,0.006562556140124798,0.07122802734375,2.4932031631469727,-0.021670466288924217,0.030100394040346146,-0.024932030588388443,0.0032615652307868004,0.0,0.04451040178537369,0.2380378097295761,0.7386316395008731,0.19745822250843048,0.38341087102890015,0.24196863174438477,0.4656069576740265,4.643157243728638,2.792635679244995,,,,,,
8513332000.0,81.34,1.309999942779541,6529777152.0,3580.1239474188737,58.0,0.008744951337575912,966656.0,855.8463792800903,0.007586374878883362,0.08197021484375,2.4498724937438965,-0.022924676537513733,0.03048107959330082,-0.024498725309967995,0.0015740478411316872,0.0,0.07303817570209503,0.2304127961397171,0.7470338547674806,0.1905968338251114,0.36931005120277405,0.2636350095272064,0.4581158757209778,4.576377868652344,2.790292739868164,,,,,,
8513332000.0,80.89,1.5700000524520874,6529777152.0,3554.598796486031,59.0,0.010519789531826973,983040.0,860.4556195735931,0.008270783349871635,0.09710693359375,2.4596314430236816,-0.021242156624794006,0.03413977101445198,-0.024596313014626503,0.0033541612792760134,0.0,0.1089571863412857,0.25051385164260864,0.7111566779349986,0.19536611437797546,0.34594324231147766,0.30432331562042236,0.4661230742931366,4.609240293502808,2.8164994716644287,,,,,,
8513332000.0,81.8,1.600000023841858,6529777152.0,3520.2377682588112,60.0,0.010603190399706364,999424.0,865.1098506450653,0.010284529998898506,0.10107421875,2.419447422027588,-0.023014726117253304,0.03431117162108421,-0.024194475263357162,0.001179749146103859,0.0,0.09393447637557983,0.2638154923915863,0.7398926170495644,0.20090186595916748,0.37459608912467957,0.2948363423347473,0.5172778964042664,4.654231071472168,2.860930919647217,,,,,,
8513332000.0,83.01,1.5099999904632568,6529777152.0,3517.190333958537,61.0,0.009763253852725029,1015808.0,869.7681143283844,0.006568020675331354,0.078857421875,2.4188175201416016,-0.020346462726593018,0.028439566493034363,-0.024188173934817314,0.0038417126052081585,0.0,0.06808312982320786,0.24035082757472992,0.6934368875484886,0.24908089637756348,0.34790611267089844,0.31716400384902954,0.4340958595275879,4.658263683319092,2.7891273498535156,,,,,,
8513332000.0,79.67,1.5199999809265137,6529777152.0,3514.689885891389,62.0,0.01075996458530426,1032192.0,874.429692029953,0.006614574231207371,0.07421875,2.366969585418701,-0.023619696497917175,0.03786344826221466,-0.02366969920694828,5.000364035367966e-05,0.0,0.09125648438930511,0.2644031047821045,0.6434231105303425,0.22830644249916077,0.3242539167404175,0.3195629119873047,0.442781925201416,4.6615777015686035,2.8108527660369873,,,,,,
8513464000.0,82.35,1.5099999904632568,6529777152.0,3451.8079703214585,63.0,0.009841911494731903,1048576.0,879.1761901378632,0.008138485252857208,0.09576416015625,2.39729642868042,-0.021872011944651604,0.0359969288110733,-0.02397296205163002,0.002100954996421933,0.0,0.04833123832941055,0.26257163286209106,0.7068853527988251,0.33484435081481934,0.34407737851142883,0.3831756114959717,0.4849857985973358,4.746498107910156,2.950721263885498,,,,,,
,,,,,,,,,,,,,,,,,,,,,,,,,,0.015516786836087704,0.0804516151547432,0.06397229433059692,0.015516786836087704,0.0804516151547432,0.06397229433059692
,,,,,,,,,,,,,,,,,,,,,,,,,,0.007436701562255621,0.057705000042915344,0.05348049849271774,0.007436701562255621,0.057705000042915344,0.05348049849271774
,,,,,,,,,,,,,,,,,,,,,,,,,,0.00648468267172575,0.05271916091442108,0.04979389160871506,0.00648468267172575,0.05271916091442108,0.04979389160871506
,,,,,,,,,,,,,,,,,,,,,,,,,,0.005729414522647858,0.0493195466697216,0.04697882756590843,0.005729414522647858,0.0493195466697216,0.04697882756590843
,,,,,,,,,,,,,,,,,,,,,,,,,,0.005294440314173698,0.046570003032684326,0.04442082718014717,0.005294440314173698,0.046570003032684326,0.04442082718014717
,,,,,,,,,,,,,,,,,,,,,,,,,,0.004826108925044537,0.04448424279689789,0.042971935123205185,0.004826108925044537,0.04448424279689789,0.042971935123205185
8513992000.0,87.25,1.7100000381469727,6327188480.0,28.11063681495237,64.0,0.011913979426026344,1064960.0,1462.016063451767,0.006710613612085581,0.0772705078125,2.4000473022460938,-0.024411963298916817,0.0429428368806839,-0.02400047332048416,-0.00041148916352540255,0.0,0.115605928003788,0.28434646129608154,0.6332454809127506,0.2341271936893463,0.3905399739742279,0.3497331142425537,0.4695264995098114,582.8398733139038,2.8369574546813965,,,,,,
8513992000.0,84.62,1.8700000047683716,6529777152.0,3523.991515689933,65.0,0.012178357690572739,1081344.0,1466.6653368473053,0.004441854543983936,0.053955078125,2.3790698051452637,-0.022313930094242096,0.03589335083961487,-0.023790698498487473,0.0014767646789550781,0.0,0.0892154648900032,0.2713814377784729,0.7052069321797648,0.37319278717041016,0.4300771653652191,0.46240824460983276,0.4998290240764618,4.64927339553833,2.817269802093506,,,,,,
8513992000.0,92.62,2.3299999237060547,6529777152.0,3469.856815106676,66.0,0.013958292081952095,1097728.0,1471.3871455192566,0.007312878966331482,0.0767822265625,2.376199245452881,-0.02017403021454811,0.07005604356527328,-0.023761989548802376,0.0035879574716091156,0.0,0.09196076542139053,0.3709685206413269,0.6338874362590383,0.4305703043937683,0.48560968041419983,0.5225310921669006,0.6130977869033813,4.721808671951294,2.777989625930786,,,,,,
8513992000.0,88.84,2.0399999618530273,6529777152.0,3524.288994718655,67.0,0.013565883971750736,1114112.0,1476.0360264778137,0.003914095927029848,0.0455322265625,2.380401611328125,-0.02461107447743416,0.03877151757478714,-0.023804016411304474,-0.000807061092928052,0.0,0.048288874328136444,0.27964240312576294,0.778148524597683,0.5604044198989868,0.5236526131629944,0.6086932420730591,0.5937066078186035,4.648880958557129,2.779784917831421,,,,,,
8513992000.0,97.32,2.25,6529777152.0,3573.596987755137,68.0,0.01420631818473339,1130496.0,1480.6207628250122,0.003306264290586114,0.03424072265625,2.3796355724334717,-0.023090265691280365,0.03147827833890915,-0.023796357214450836,0.0007060905918478966,0.0,0.06455793231725693,0.24818934500217438,0.8058508555948266,0.558625340461731,0.5041753649711609,0.6231832504272461,0.5632684230804443,4.584736347198486,2.7672972679138184,,,,,,
8513992000.0,104.62,2.6600000858306885,6529777152.0,3504.9607525563024,69.0,0.014230288565158844,1146880.0,1485.2952802181244,0.009354443289339542,0.10089111328125,2.386211633682251,-0.01875481940805912,0.041457854211330414,-0.023862116038799286,0.005107295699417591,0.0,0.0954388678073883,0.27908673882484436,0.760642781022603,0.5483264923095703,0.4640238583087921,0.6437654495239258,0.5704478621482849,4.674517393112183,2.7680580615997314,,,,,,
8513992000.0,105.36,2.4800000190734863,6529777152.0,3494.283646872084,70.0,0.01388330478221178,1163264.0,1489.984081029892,0.009268149733543396,0.10394287109375,2.3708486557006836,-0.019797079265117645,0.033456236124038696,-0.023708486929535866,0.003911408130079508,0.0,0.065569669008255,0.2582387626171112,0.7667303188255085,0.5518558621406555,0.43397003412246704,0.6174255609512329,0.5346779227256775,4.688800811767578,2.7638537883758545,,,,,,
8513992000.0,100.39,2.6500000953674316,6529777152.0,3535.560135926653,71.0,0.015200253576040268,1179648.0,1494.6181416511536,0.003870065789669752,0.04156494140625,2.353097438812256,-0.023272596299648285,0.03933270648121834,-0.023530973121523857,0.00025837868452072144,0.0,0.08806973695755005,0.2763954997062683,0.7986779240428685,0.6535074710845947,0.5315943360328674,0.7415772676467896,0.6160064935684204,4.634060621261597,2.772944688796997,,,,,,
8513992000.0,102.05,2.5199999809265137,6529777152.0,3584.1497560130933,72.0,0.014003707095980644,1196032.0,1499.1893792152405,0.005893402732908726,0.07403564453125,2.3747196197509766,-0.020813971757888794,0.03889048472046852,-0.023747198283672333,0.0029332321137189865,0.0,0.08587236702442169,0.2760358154773712,0.7711165908162255,0.6718045473098755,0.5045879483222961,0.757676899433136,0.5769767761230469,4.571237564086914,2.772413730621338,,,,,,
8513992000.0,110.78,2.859999895095825,6529777152.0,3583.0553942913443,73.0,0.015476548112928867,1212416.0,1503.7620129585266,0.005198713857680559,0.0576171875,2.352135181427002,-0.022747427225112915,0.061092130839824677,-0.02352135255932808,0.0007739262655377388,0.0,0.06184322386980057,0.3413410484790802,0.7526880488298264,0.7821851372718811,0.5483601689338684,0.8440283536911011,0.6863821148872375,4.572633743286133,2.776646137237549,,,,,,
8513992000.0,112.97,2.680000066757202,6529777152.0,3589.771306319472,74.0,0.014513066038489342,1228800.0,1508.326092004776,0.004246068187057972,0.04559326171875,2.3813095092773438,-0.02298993058502674,0.04793069139122963,-0.023813093081116676,0.000823162030428648,0.0,0.06833992898464203,0.3118380308151245,0.7697104474725058,0.7465987205505371,0.5296952128410339,0.8149386644363403,0.6498183012008667,4.56407904624939,2.7696168422698975,,,,,,
8513992000.0,132.83,4.03000020980835,6529777152.0,3579.024772696083,75.0,0.01608233153820038,1245184.0,1512.9038753509521,0.00884539820253849,0.09185791015625,2.3788390159606934,-0.020266592502593994,0.11356328427791595,-0.023788390681147575,0.0035218000411987305,0.0,0.11536584794521332,0.49510282278060913,0.5493917537117501,0.8181948661804199,0.5399793386459351,0.9335607290267944,0.7375574707984924,4.5777833461761475,2.7653656005859375,,,,,,
8513992000.0,133.7,3.8399999141693115,6529777152.0,3517.945664628799,76.0,0.016062503680586815,1261568.0,1517.561138868332,0.0056083956733345985,0.07049560546875,2.351644515991211,-0.02100498229265213,0.05243547260761261,-0.023516444489359856,0.0025114621967077255,0.0,0.1038060262799263,0.30860021710395813,0.7674765782413482,0.8793340921401978,0.5511099696159363,0.9831401109695435,0.6399749517440796,4.657263517379761,2.7708866596221924,,,,,,
8513992000.0,159.71,4.989999771118164,6529777152.0,3524.684325544826,77.0,0.017245396971702576,1277952.0,1522.2094984054565,0.007322800811380148,0.078857421875,2.3362557888031006,-0.020547334104776382,0.1636679768562317,-0.023362556472420692,0.0028152274899184704,0.0,0.11427672952413559,0.5598660707473755,0.6084950793058603,1.0052666664123535,0.6121789216995239,1.119543433189392,0.8947785496711731,4.648359537124634,2.7765238285064697,,,,,,
8513992000.0,150.7,4.21999979019165,6529777152.0,3560.6494429473864,78.0,0.015749413520097733,1294336.0,1526.8109061717987,0.0029583205468952656,0.03271484375,2.348522424697876,-0.02226993814110756,0.12796850502490997,-0.023485222831368446,0.0012152791023254395,0.0,0.07447968423366547,0.49153903126716614,0.7265499125684847,1.2836002111434937,0.7648637890815735,1.3580799102783203,0.9399808049201965,4.601407766342163,2.770362377166748,,,,,,
8513992000.0,154.0,4.349999904632568,6529777152.0,3521.224621561547,79.0,0.01517205499112606,1310720.0,1531.4638328552246,0.0063400231301784515,0.06500244140625,2.3518474102020264,-0.021115276962518692,0.11373750120401382,-0.023518472909927368,0.002403195947408676,0.0,0.07944764196872711,0.45949587225914,0.6974488726939523,1.2387795448303223,0.6807175874710083,1.3182270526885986,0.8353763222694397,4.652926683425903,2.771833896636963,,,,,,
8513992000.0,152.87,4.46999979019165,6529777152.0,3583.2491388169733,80.0,0.01790434867143631,1327104.0,1536.0362193584442,0.00677898433059454,0.07366943359375,2.3276851177215576,-0.021012157201766968,0.1513502597808838,-0.02327685058116913,0.0022646989673376083,0.0,0.08693084120750427,0.5228610634803772,0.748484464446568,1.3020176887512207,0.8227072954177856,1.3889485597610474,1.0425667762756348,4.5723865032196045,2.7714121341705322,,,,,,
8513992000.0,165.01,5.349999904632568,6529777152.0,3633.8289170589155,81.0,0.018807269632816315,1343488.0,1540.5449621677399,0.007345331367105246,0.08685302734375,2.3363876342773438,-0.019756408408284187,0.14554081857204437,-0.0233638733625412,0.0036074677482247353,0.0,0.1344885677099228,0.5393712520599365,0.7564682656394375,1.4567959308624268,0.9446601867675781,1.5912846326828003,1.0929744243621826,4.508742809295654,2.7762982845306396,,,,,,
8513992000.0,199.86,6.730000019073486,6529777152.0,3518.8789773953317,82.0,0.017721522599458694,1359872.0,1545.2009904384613,0.008431079797446728,0.09735107421875,2.3216357231140137,-0.018732458353042603,0.15735504031181335,-0.023216357454657555,0.004483900498598814,0.0,0.15447184443473816,0.5421812534332275,0.7647920416496492,1.4744153022766113,0.9130891561508179,1.6288871765136719,1.1179399490356445,4.6560282707214355,2.77455997467041,,,,,,
8513992000.0,206.75,7.369999885559082,6529777152.0,3481.849466726272,83.0,0.020357444882392883,1376256.0,1549.9065356254578,0.0060554854571819305,0.0692138671875,2.3276567459106445,-0.020497573539614677,0.18406306207180023,-0.023276565596461296,0.002778995782136917,0.0,0.17008745670318604,0.509080708026886,0.7810763994699447,1.4559097290039062,0.8548693060874939,1.6259970664978027,1.0880284309387207,4.70554518699646,2.7771384716033936,,,,,,
8513992000.0,174.55,6.019999980926514,6529777152.0,3589.2577552740604,84.0,0.018286792561411858,1392640.0,1554.4712677001953,0.009387421421706676,0.1029052734375,2.2642972469329834,-0.019458726048469543,0.13336306810379028,-0.022642970085144043,0.003184240311384201,0.0,0.11634135991334915,0.5061939358711243,0.7571426477567749,1.4666566848754883,0.8275809288024902,1.5829980373382568,1.027167558670044,4.564732074737549,2.800550699234009,,,,,,
8513992000.0,204.5,7.78000020980835,6529777152.0,3463.462123462176,85.0,0.020690705627202988,1409024.0,1559.20179438591,0.005135657265782356,0.05853271484375,2.3074116706848145,-0.019196005538105965,0.21472612023353577,-0.023074118420481682,0.0038781147450208664,0.0,0.22485753893852234,0.6339662671089172,0.7872072919623628,1.6381902694702148,1.1058218479156494,1.8630478382110596,1.3743196725845337,4.730526685714722,2.7947070598602295,,,,,,
8513992000.0,258.5,10.84000015258789,6529777152.0,3552.6108469293335,86.0,0.023597605526447296,1425408.0,1563.8136138916016,0.01489967666566372,0.1439208984375,2.249448299407959,-0.015044700354337692,0.21315044164657593,-0.02249448373913765,0.007449783384799957,0.0,0.2535741329193115,0.6399460434913635,0.8036038688804796,1.5731494426727295,1.1464685201644897,1.826723575592041,1.4440323114395142,4.611819505691528,2.7704896926879883,,,,,,
8513992000.0,202.49,8.1899995803833,6529777152.0,3620.7816077225243,87.0,0.019946947693824768,1441792.0,1568.33860373497,0.008120741695165634,0.09014892578125,2.345759391784668,-0.017942028120160103,0.18552753329277039,-0.023457592353224754,0.0055155642330646515,0.0,0.19889909029006958,0.5476953387260437,0.7854630638888366,1.47145414352417,0.8932632803916931,1.6703531742095947,1.1824644804000854,4.52498984336853,2.794032335281372,,,,,,
8513992000.0,215.74,9.399999618530273,6529777152.0,3500.831287481264,88.0,0.022493068128824234,1458176.0,1573.0186350345612,0.008561406284570694,0.0960693359375,2.2959065437316895,-0.020291496068239212,0.2530195713043213,-0.022959066554903984,0.0026675714179873466,0.0,0.22057987749576569,0.6510716080665588,0.8316946387753356,1.850885272026062,1.3492087125778198,2.071465015411377,1.587010383605957,4.6800312995910645,2.788228750228882,,,,,,
8513992000.0,223.8,8.8100004196167,6529777152.0,3456.151540725061,89.0,0.020770380273461342,1474560.0,1577.7591679096222,0.00766543997451663,0.08795166015625,2.329458236694336,-0.019338013604283333,0.28457725048065186,-0.023294582962989807,0.0039565591141581535,0.0,0.16098956763744354,0.7126253843307495,0.8019445159417973,2.064925193786621,1.4237016439437866,2.225914478302002,1.601281762123108,4.740532875061035,2.869417667388916,,,,,,
8513992000.0,207.18,7.960000038146973,6529777152.0,3505.2870320429133,90.0,0.021185252815485,1490944.0,1582.4332501888275,0.008423537015914917,0.09185791015625,2.317497968673706,-0.017941605299711227,0.2150086760520935,-0.02317497879266739,0.0052333734929561615,0.0,0.16326087713241577,0.6460813283920288,0.7531271018487845,1.705238938331604,0.9881357550621033,1.868499755859375,1.3003206253051758,4.674082279205322,2.782370090484619,,,,,,
8513992000.0,233.1,9.920000076293945,6529777152.0,3447.197394436677,91.0,0.023875746876001358,1507328.0,1587.1860966682434,0.005833328701555729,0.0653076171875,2.3198256492614746,-0.020937515422701836,0.24061821401119232,-0.023198256269097328,0.0022607380524277687,0.0,0.24795061349868774,0.6603367328643799,0.8373223271149344,2.0259740352630615,1.3311036825180054,2.2739248275756836,1.6371991634368896,4.7528464794158936,2.9344584941864014,,,,,,
8513992000.0,224.48,8.65999984741211,6529777152.0,3471.1276824035417,92.0,0.019144024699926376,1523712.0,1591.9061765670776,0.0062020611949265,0.07470703125,2.3463120460510254,-0.018244575709104538,0.2006189227104187,-0.023463120684027672,0.005218539386987686,0.0,0.15603096783161163,0.6293135285377502,0.8046557509061807,1.7672839164733887,1.205383062362671,1.9233148097991943,1.4238578081130981,4.7200798988342285,2.7832772731781006,,,,,,
8513992000.0,216.59,8.020000457763672,6529777152.0,3429.9453648267804,93.0,0.020710274577140808,1540096.0,1596.6829290390015,0.005812221206724644,0.06903076171875,2.3489084243774414,-0.021983090788125992,0.18600967526435852,-0.023489084094762802,0.0015059923753142357,0.0,0.1461365669965744,0.6166029572486877,0.7813892029149068,1.9304206371307373,1.1312530040740967,2.076557159423828,1.3187719583511353,4.776752471923828,2.7805747985839844,,,,,,
8513992000.0,233.89,10.180000305175781,6529777152.0,3406.8623682067914,94.0,0.02251778170466423,1556480.0,1601.4920461177826,0.0073485467582941055,0.0804443359375,2.3487508296966553,-0.019477222114801407,0.276885986328125,-0.023487510159611702,0.004010286647826433,0.0,0.27129366993904114,0.7532823085784912,0.8415850130870727,2.2268729209899902,1.6294525861740112,2.498166561126709,1.8926036357879639,4.809117078781128,2.9063007831573486,,,,,,
8514216000.0,264.04,12.279999732971191,6529777152.0,3510.2254604537043,95.0,0.021049033850431442,1572864.0,1606.1595525741577,0.006050260737538338,0.068115234375,2.304553270339966,-0.020241715013980865,0.3069927990436554,-0.023045532405376434,0.0028038155287504196,0.0,0.18879079818725586,0.7843206524848938,0.8008057254671781,2.3858213424682617,1.5920929908752441,2.5746121406555176,1.7573373317718506,4.667506456375122,2.7760732173919678,,,,,,
,,,,,,,,,,,,,,,,,,,,,,,,,,0.040341440588235855,0.3793812692165375,0.3445482850074768,0.040341440588235855,0.3793812692165375,0.3445482850074768
,,,,,,,,,,,,,,,,,,,,,,,,,,0.021100813522934914,0.2746313512325287,0.26340770721435547,0.021100813522934914,0.2746313512325287,0.26340770721435547
,,,,,,,,,,,,,,,,,,,,,,,,,,0.021085627377033234,0.26152727007865906,0.2484567016363144,0.021085627377033234,0.26152727007865906,0.2484567016363144
,,,,,,,,,,,,,,,,,,,,,,,,,,0.01813049241900444,0.2442398965358734,0.23143070936203003,0.01813049241900444,0.2442398965358734,0.23143070936203003
,,,,,,,,,,,,,,,,,,,,,,,,,,0.017569812014698982,0.23117339611053467,0.22007426619529724,0.017569812014698982,0.23117339611053467,0.22007426619529724
,,,,,,,,,,,,,,,,,,,,,,,,,,0.016848323866724968,0.22167128324508667,0.20991487801074982,0.016848323866724968,0.22167128324508667,0.20991487801074982
8514744000.0,301.9,14.350000381469727,6327188480.0,28.22353897807688,96.0,0.028714127838611603,1589248.0,2186.6679010391235,0.004978991579264402,0.05364990234375,2.320423126220703,-0.02016504481434822,0.35069870948791504,-0.023204229772090912,0.0030391886830329895,0.0,0.393189013004303,0.8000233173370361,0.8458672608081397,2.0802769660949707,1.7366997003555298,2.473465919494629,2.0377702713012695,580.5083484649658,2.8179917335510254,,,,,,
8514744000.0,293.76,14.539999961853027,6529777152.0,3590.1792144176675,97.0,0.025047361850738525,1605632.0,2191.2314615249634,0.005314313340932131,0.05828857421875,2.3204071521759033,-0.022061627358198166,0.2723945677280426,-0.023204069584608078,0.0011424478143453598,0.0,0.24613678455352783,0.7407926321029663,0.8504013319234172,2.396148443222046,1.7521263360977173,2.642285108566284,1.9152820110321045,4.563560485839844,2.7634990215301514,,,,,,
8514744000.0,250.34,12.300000190734863,6529777152.0,3492.0035576835667,98.0,0.02635270729660988,1622016.0,2195.923323869705,0.003974221646785736,0.039794921875,2.3050198554992676,-0.021025188267230988,0.37143439054489136,-0.02305019646883011,0.0020250044763088226,0.0,0.20671728253364563,0.8484106659889221,0.8454205985389737,2.854966640472412,2.036832094192505,3.0616841316223145,2.157895088195801,4.691862344741821,2.762852668762207,,,,,,
8514744000.0,281.32,14.380000114440918,6529777152.0,3510.886679138788,99.0,0.024910880252718925,1638400.0,2200.589951276779,0.003243883140385151,0.031982421875,2.2985787391662598,-0.022054051980376244,0.41806280612945557,-0.02298578806221485,0.0009317365474998951,0.0,0.28714972734451294,0.905742883682251,0.822059046371516,3.020679473876953,2.0366854667663574,3.3078293800354004,2.147172689437866,4.666627407073975,2.7726712226867676,,,,,,
8514744000.0,305.92,15.140000343322754,6529777152.0,3554.7659385031156,100.0,0.0277115385979414,1654784.0,2205.1989748477936,0.003936552442610264,0.04083251953125,2.310784339904785,-0.02132410556077957,0.3523145914077759,-0.02310784161090851,0.0017837341874837875,0.0,0.21456412971019745,0.7804443836212158,0.8189600673561723,3.1146528720855713,1.6629008054733276,3.329216957092285,1.8342338800430298,4.609023571014404,2.7505698204040527,,,,,,
8514744000.0,315.92,16.489999771118164,6529777152.0,3518.950153578867,101.0,0.027064248919487,1671168.0,2209.8549089431763,0.003880904521793127,0.04193115234375,2.2869491577148438,-0.02205457165837288,0.36116448044776917,-0.022869490087032318,0.0008149128407239914,0.0,0.32752180099487305,0.7965007424354553,0.8500401863594622,3.501875400543213,1.8669970035552979,3.829397201538086,2.0568320751190186,4.65593409538269,2.7473578453063965,,,,,,
8514744000.0,321.82,17.510000228881836,6529777152.0,3548.413662467386,102.0,0.028049776330590248,1687552.0,2214.4721834659576,0.003948351368308067,0.04248046875,2.3256866931915283,-0.021830186247825623,0.3440070152282715,-0.02325686626136303,0.0014266818761825562,0.0,0.26199156045913696,0.7851179242134094,0.8360736749857263,3.6034140586853027,1.7366760969161987,3.865405797958374,1.9391459226608276,4.617274522781372,2.7530269622802734,,,,,,
8514744000.0,316.63,17.040000915527344,6529777152.0,3581.861254776416,103.0,0.029162835329771042,1703936.0,2219.0463416576385,0.005048823542892933,0.04876708984375,2.2863879203796387,-0.022338861599564552,0.4013074040412903,-0.022863879799842834,0.0005250182002782822,0.0,0.1871178150177002,0.8778209686279297,0.803255649999339,4.129116058349609,1.8797489404678345,4.3162336349487305,1.9790410995483398,4.574158191680908,2.7722764015197754,,,,,,
8514744000.0,318.4,16.0,6529777152.0,3460.9199749333206,104.0,0.026676788926124573,1720320.0,2223.780343055725,0.004298157058656216,0.04571533203125,2.294726610183716,-0.021526403725147247,0.4062463641166687,-0.022947266697883606,0.0014208599459379911,0.0,0.14795413613319397,0.8843880891799927,0.7943394858022295,4.405010223388672,1.8463085889816284,4.552964210510254,1.9501467943191528,4.734001398086548,2.7706892490386963,,,,,,
8514744000.0,318.24,15.930000305175781,6529777152.0,3612.0667884224176,105.0,0.02406516671180725,1736704.0,2228.3162503242493,0.006099153775721788,0.06793212890625,2.264760971069336,-0.020513178780674934,0.36486107110977173,-0.022647608071565628,0.0021344278939068317,0.0,0.17419984936714172,0.8186706304550171,0.7526645281035502,4.5285749435424805,1.5434030294418335,4.702775001525879,1.646136999130249,4.53590726852417,2.772165298461914,,,,,,
8514744000.0,341.63,18.309999465942383,6529777152.0,3535.5070214459047,106.0,0.030803833156824112,1753088.0,2232.950380563736,0.004036979284137487,0.0472412109375,2.3181257247924805,-0.0194129329174757,0.37738102674484253,-0.023181257769465446,0.0037683220580220222,0.0,0.18852680921554565,0.854150652885437,0.7614396162257244,4.552154541015625,1.5556440353393555,4.740680694580078,1.7487810850143433,4.634130239486694,2.7698333263397217,,,,,,
8514744000.0,332.47,17.729999542236328,6529777152.0,3620.4441555934604,107.0,0.02650263160467148,1769472.0,2237.475792169571,0.004876669496297836,0.0543212890625,2.2925477027893066,-0.02022632025182247,0.3345288038253784,-0.022925477474927902,0.0026991553604602814,0.0,0.14630073308944702,0.7806169390678406,0.8055724326245386,4.538241386413574,1.537456750869751,4.684542655944824,1.7703500986099243,4.525411605834961,2.7663629055023193,,,,,,
8514744000.0,329.72,17.31999969482422,6529777152.0,3616.721291714056,108.0,0.024877671152353287,1785856.0,2242.0058619976044,0.003977232612669468,0.04412841796875,2.2893450260162354,-0.0207526758313179,0.3202759623527527,-0.022893449291586876,0.0021407725289463997,0.0,0.20837482810020447,0.742555558681488,0.8199075020071638,4.374547958374023,1.5727074146270752,4.58292293548584,1.7497715950012207,4.530069828033447,2.764943838119507,,,,,,
8514744000.0,353.26,19.899999618530273,6529777152.0,3643.523123664089,109.0,0.030912676826119423,1802240.0,2246.502608537674,0.004582792054861784,0.04949951171875,2.252647876739502,-0.0201377272605896,0.2902265787124634,-0.02252647839486599,0.00238875113427639,0.0,0.26634079217910767,0.7449381351470947,0.8384506723444233,4.59989070892334,1.6922804117202759,4.866231441497803,1.8533936738967896,4.49674654006958,2.7606892585754395,,,,,,
8514744000.0,370.45,20.899999618530273,6529777152.0,3507.2237895290405,110.0,0.031525760889053345,1818624.0,2251.174109697342,0.0031391154043376446,0.029296875,2.2726857662200928,-0.020489951595664024,0.3803557753562927,-0.02272685617208481,0.002236904576420784,0.0,0.20360621809959412,0.8441962003707886,0.7828096140876402,4.933258056640625,1.726455807685852,5.13686466217041,1.8114378452301025,4.671501159667969,2.7609128952026367,,,,,,
8514744000.0,350.62,19.780000686645508,6529777152.0,3535.3887928865297,111.0,0.028525622561573982,1835008.0,2255.808394908905,0.002894512377679348,0.029052734375,2.2782399654388428,-0.020844483748078346,0.32927295565605164,-0.022782396525144577,0.0019379165023565292,0.0,0.22290129959583282,0.7932994365692139,0.8085795041539849,4.813733100891113,1.6319514513015747,5.03663444519043,1.8131886720657349,4.63428521156311,2.7674341201782227,,,,,,
8514744000.0,352.33,20.719999313354492,6529777152.0,3605.674548875364,112.0,0.0302172489464283,1851392.0,2260.352343559265,0.0037023471668362617,0.03607177734375,2.26448917388916,-0.02027624286711216,0.3183319866657257,-0.02264489233493805,0.002368645742535591,0.0,0.20584453642368317,0.7884657979011536,0.7943551109526996,5.200757026672363,1.6437864303588867,5.406601905822754,1.7386984825134277,4.543948650360107,2.7633514404296875,,,,,,
8514744000.0,365.38,20.8799991607666,6529777152.0,3501.0790271185397,113.0,0.029411423951387405,1867776.0,2265.03204369545,0.003746265545487404,0.03900146484375,2.2745144367218018,-0.020971179008483887,0.35061684250831604,-0.022745143622159958,0.0017739618197083473,0.0,0.13262224197387695,0.8357715010643005,0.7516379877052066,5.379825592041016,1.5625278949737549,5.512448310852051,1.6770461797714233,4.679700136184692,2.763436794281006,,,,,,
8514744000.0,361.02,19.84000015258789,6529777152.0,3602.578124352067,114.0,0.026983249932527542,1884160.0,2269.579897880554,0.0030486341565847397,0.031005859375,2.2664859294891357,-0.020752400159835815,0.28328198194503784,-0.022664858028292656,0.0019124653190374374,0.0,0.1742459237575531,0.7444469928741455,0.7609366283311425,5.312412261962891,1.4253110885620117,5.486657619476318,1.522569179534912,4.54785418510437,2.793667793273926,,,,,,
8514744000.0,361.44,21.209999084472656,6529777152.0,3519.728594488735,115.0,0.03181937336921692,1900544.0,2274.2348022460938,0.0035876217298209667,0.039306640625,2.2683181762695312,-0.020949192345142365,0.29754772782325745,-0.02268318273127079,0.0017339917831122875,0.0,0.22513651847839355,0.7511448860168457,0.7585658600252573,5.149262428283691,1.3221169710159302,5.374399185180664,1.5287072658538818,4.654904365539551,2.7700469493865967,,,,,,
8514744000.0,364.19,21.540000915527344,6529777152.0,3468.3318118552947,116.0,0.02638988383114338,1916928.0,2278.958687067032,0.004568910226225853,0.04425048828125,2.2470850944519043,-0.02149324305355549,0.33258023858070374,-0.022470852360129356,0.0009776074439287186,0.0,0.19128814339637756,0.7742749452590942,0.7685513849693546,5.33927059173584,1.454162359237671,5.5305585861206055,1.6094152927398682,4.72388482093811,2.767843008041382,,,,,,
8514744000.0,365.41,21.469999313354492,6529777152.0,3446.158268330397,117.0,0.0322566032409668,1933312.0,2283.7129666805267,0.007675458677113056,0.0870361328125,2.2386505603790283,-0.018778609111905098,0.22902128100395203,-0.02238650619983673,0.0036079026758670807,0.0,0.2157425880432129,0.6660623550415039,0.826489922006505,5.331765174865723,1.3915797472000122,5.5475077629089355,1.599014163017273,4.754279613494873,2.7514450550079346,,,,,,
8514744000.0,369.75,22.139999389648438,6529777152.0,3573.321784912782,118.0,0.03298737853765488,1949696.0,2288.298056125641,0.005125567317008972,0.0576171875,2.2703166007995605,-0.021067213267087936,0.33165979385375977,-0.02270316518843174,0.0016359502915292978,0.0,0.17103680968284607,0.7842409610748291,0.8037479608347907,5.645134925842285,1.6283109188079834,5.816171646118164,1.7702809572219849,4.585089445114136,2.7718513011932373,,,,,,
8514744000.0,362.77,20.780000686645508,6529777152.0,3513.6704005834617,119.0,0.0255984328687191,1966080.0,2292.9609863758087,0.0035533769987523556,0.025146484375,2.2671642303466797,-0.020495647564530373,0.33498138189315796,-0.022671641781926155,0.0021759923547506332,0.0,0.08275683224201202,0.7858511209487915,0.7824158541899143,5.678977966308594,1.555171012878418,5.761734485626221,1.6847162246704102,4.662930250167847,2.7716710567474365,,,,,,
8514744000.0,367.08,21.40999984741211,6529777152.0,3459.715267897127,120.0,0.030411306768655777,1982464.0,2297.696636199951,0.004862832836806774,0.04962158203125,2.270418167114258,-0.020579876378178596,0.3178890347480774,-0.02270417846739292,0.0021243030205368996,0.0,0.1953197717666626,0.7621975541114807,0.7800038230155275,6.1785478591918945,1.5404489040374756,6.373867511749268,1.6250256299972534,4.735649824142456,2.839618444442749,,,,,,
8514744000.0,382.36,22.5,6529777152.0,3524.727714300794,121.0,0.03011273592710495,1998848.0,2302.344938516617,0.004110882990062237,0.03973388671875,2.287123203277588,-0.0205148346722126,0.32804644107818604,-0.02287123166024685,0.0023563969880342484,0.0,0.12572459876537323,0.780514657497406,0.7219257544358724,6.458255767822266,1.401013731956482,6.583980560302734,1.4801335334777832,4.648302316665649,2.8484437465667725,,,,,,
8514744000.0,383.96,22.549999237060547,6529777152.0,3608.4270612246355,122.0,0.0339985191822052,2015232.0,2306.885421037674,0.0032286373898386955,0.032470703125,2.309222936630249,-0.020358307287096977,0.2949203848838806,-0.023092230781912804,0.0027339207008481026,0.0,0.1191500872373581,0.7282941341400146,0.7500778421970917,6.688459396362305,1.3289867639541626,6.807609558105469,1.4568146467208862,4.540482521057129,2.7688655853271484,,,,,,
8514744000.0,391.45,23.389999389648438,6529777152.0,3540.9681455748846,123.0,0.026345010846853256,2031616.0,2311.512404203415,0.003134444821625948,0.032958984375,2.3030598163604736,-0.02237129397690296,0.2612133026123047,-0.0230305977165699,0.000659305602312088,0.0,0.09846974164247513,0.6984205842018127,0.7361539009564357,7.020423412322998,1.2811424732208252,7.118893623352051,1.3596986532211304,4.626983165740967,2.8005666732788086,,,,,,
8514744000.0,389.86,23.489999771118164,6529777152.0,3514.2346116186327,124.0,0.029554594308137894,2048000.0,2316.1745858192444,0.0038004599045962095,0.0391845703125,2.310185670852661,-0.02212069369852543,0.3201180398464203,-0.02310185879468918,0.0009811613708734512,0.0,0.06558093428611755,0.7408926486968994,0.7441905496305814,7.258689880371094,1.3201470375061035,7.324270725250244,1.4648628234863281,4.662181615829468,2.759854555130005,,,,,,
8514744000.0,386.39,22.739999771118164,6529777152.0,3608.0240890995524,125.0,0.031351134181022644,2064384.0,2320.7155754566193,0.0027312971651554108,0.0206298828125,2.3143515586853027,-0.02110455185174942,0.34793391823768616,-0.02314351685345173,0.002038959413766861,0.0,0.08874987065792084,0.7059265971183777,0.7580251405491149,7.894731044769287,1.3612730503082275,7.983480930328369,1.435075044631958,4.540989637374878,2.772226572036743,,,,,,
8514744000.0,379.35,22.649999618530273,6529777152.0,3567.7730829199973,126.0,0.03126147389411926,2080768.0,2325.3077957630157,0.0025120186619460583,0.01959228515625,2.327653646469116,-0.021045541390776634,0.30600205063819885,-0.02327653579413891,0.0022310037165880203,0.0,0.010766380466520786,0.7833895087242126,0.668775456741133,8.324443817138672,1.2457084655761719,8.335211753845215,1.3611887693405151,4.592220306396484,2.818859100341797,,,,,,
8514784000.0,379.16,21.790000915527344,6529777152.0,3419.9699165768825,127.0,0.030654603615403175,2097152.0,2330.0984811782837,0.0053888228721916676,0.04742431640625,2.322934150695801,-0.021459944546222687,0.3807924687862396,-0.023229338228702545,0.001769394613802433,0.0,-0.06683960556983948,0.8582029342651367,0.6629739556022206,8.22307014465332,1.267926573753357,8.156230926513672,1.4782886505126953,4.790685415267944,2.780559539794922,,,,,,
,,,,,,,,,,,,,,,,,,,,,,,,,,0.05672888457775116,1.8271480798721313,1.7308720350265503,0.05672888457775116,1.8271480798721313,1.7308720350265503
,,,,,,,,,,,,,,,,,,,,,,,,,,0.02981177344918251,1.5544580221176147,1.4761215448379517,0.02981177344918251,1.5544580221176147,1.4761215448379517
,,,,,,,,,,,,,,,,,,,,,,,,,,0.025980206206440926,1.4890587329864502,1.4001309871673584,0.025980206206440926,1.4890587329864502,1.4001309871673584
,,,,,,,,,,,,,,,,,,,,,,,,,,0.025158971548080444,1.4153616428375244,1.3310556411743164,0.025158971548080444,1.4153616428375244,1.3310556411743164
,,,,,,,,,,,,,,,,,,,,,,,,,,0.02513432875275612,1.3667712211608887,1.2866522073745728,0.02513432875275612,1.3667712211608887,1.2866522073745728
,,,,,,,,,,,,,,,,,,,,,,,,,,0.02519882097840309,1.3453729152679443,1.2601854801177979,0.02519882097840309,1.3453729152679443,1.2601854801177979
8514784000.0,380.34,21.700000762939453,6327188480.0,28.198991572910945,128.0,0.022083498537540436,2113536.0,2911.112165927887,0.0024640874471515417,0.0162353515625,2.3610899448394775,-0.022301487624645233,0.3749105930328369,-0.023610897362232208,0.0013094078749418259,0.0,0.15052732825279236,0.8653596639633179,0.7475532793186013,5.095590591430664,1.6811745166778564,5.24611759185791,1.7223111391067505,581.0136847496033,2.7889392375946045,,,,,,
8514784000.0,392.1,22.079999923706055,6529777152.0,3633.8517835119487,129.0,0.034117840230464935,2129920.0,2915.6208803653717,0.004712359514087439,0.056396484375,2.3595759868621826,-0.022359956055879593,0.3126269578933716,-0.02359575778245926,0.0012358017265796661,0.0,0.23712369799613953,0.7816265821456909,0.7814905157606937,5.4943084716796875,1.5641371011734009,5.731432914733887,1.6721091270446777,4.508714437484741,2.767453193664551,,,,,,
8514784000.0,405.71,23.540000915527344,6529777152.0,3528.1377926966065,130.0,0.028100427240133286,2146304.0,2920.2646899223328,0.005076999310404062,0.05816650390625,2.370971441268921,-0.02181347832083702,0.2712151110172272,-0.02370971441268921,0.0018962360918521881,0.0,0.19528904557228088,0.7240082621574402,0.7946931114701323,5.70365047454834,1.5123200416564941,5.898939609527588,1.5978718996047974,4.64380955696106,2.8619072437286377,,,,,,
8514784000.0,401.11,23.510000228881836,6529777152.0,3537.561458571581,131.0,0.029870454221963882,2162688.0,2924.8961288928986,0.0043242014944553375,0.041748046875,2.3716940879821777,-0.022136054933071136,0.24793387949466705,-0.023716941475868225,0.0015808846801519394,0.0,0.1537238359451294,0.706437349319458,0.7945237500152801,5.98396110534668,1.4295912981033325,6.1376848220825195,1.5584486722946167,4.631438970565796,2.7642526626586914,,,,,,
8514784000.0,406.2,24.309999465942383,6529777152.0,3547.3499842556753,132.0,0.031186381354928017,2179072.0,2929.514787912369,0.0034507070668041706,0.03253173828125,2.360032558441162,-0.02330392226576805,0.2940573990345001,-0.023600326851010323,0.0002964036539196968,0.0,0.15088096261024475,0.7554713487625122,0.7644043462328076,6.28471565246582,1.4853826761245728,6.435595989227295,1.5564459562301636,4.618659019470215,2.747897148132324,,,,,,
8514784000.0,406.11,24.309999465942383,6529777152.0,3499.293019086416,133.0,0.028160016983747482,2195456.0,2934.196876525879,0.0042374832555651665,0.04034423828125,2.3431856632232666,-0.022718381136655807,0.23854608833789825,-0.02343185618519783,0.0007134741172194481,0.0,0.17476201057434082,0.6596270799636841,0.7838000798098332,6.149219036102295,1.3029285669326782,6.323981285095215,1.4186347723007202,4.682088613510132,2.7575409412384033,,,,,,
8514784000.0,396.42,23.190000534057617,6529777152.0,3511.690089150185,134.0,0.03365042805671692,2211840.0,2938.8624362945557,0.005384974181652069,0.05865478515625,2.3603665828704834,-0.021859444677829742,0.28801435232162476,-0.023603666573762894,0.001744220033288002,0.0,0.13191893696784973,0.7475708723068237,0.7634595417930372,6.496967315673828,1.3929980993270874,6.6288862228393555,1.5370904207229614,4.665559768676758,2.7470123767852783,,,,,,
8514784000.0,388.92,21.790000915527344,6529777152.0,3487.3981378918184,135.0,0.02373604290187359,2228224.0,2943.560494661331,0.007020593620836735,0.08160400390625,2.334625244140625,-0.021162061020731926,0.27280181646347046,-0.023346249014139175,0.0021841861307621002,0.0,0.08994749933481216,0.7246599793434143,0.7879871865782195,6.646487236022949,1.423841118812561,6.7364349365234375,1.5738130807876587,4.698058366775513,2.7522013187408447,,,,,,
8514784000.0,382.28,21.34000015258789,6529777152.0,3522.2261097762,136.0,0.029903631657361984,2244608.0,2948.2120983600616,0.005538029130548239,0.062255859375,2.341625928878784,-0.021290568634867668,0.2517891526222229,-0.02341626025736332,0.002125694416463375,0.0,0.10185213387012482,0.6937748193740845,0.7399121425422045,6.9097795486450195,1.3330425024032593,7.011631965637207,1.3603757619857788,4.651603698730469,2.766218662261963,,,,,,
8514784000.0,401.62,23.649999618530273,6529777152.0,3646.032332997767,137.0,0.02936013787984848,2260992.0,2952.7057502269745,0.00598341878503561,0.05633544921875,2.327582836151123,-0.022717630490660667,0.23461420834064484,-0.0232758279889822,0.0005581965669989586,0.0,0.12042146176099777,0.6798716187477112,0.7334480423641833,7.150740146636963,1.2358158826828003,7.271162033081055,1.3168506622314453,4.493651866912842,2.7652695178985596,,,,,,
8514784000.0,408.4,24.100000381469727,6529777152.0,3469.4341000915124,138.0,0.026735758408904076,2277376.0,2957.428134202957,0.004741039592772722,0.046875,2.346088409423828,-0.019800381734967232,0.20947106182575226,-0.023460883647203445,0.0036605019122362137,0.0,0.08177747577428818,0.6403294205665588,0.7282260478261191,7.081334590911865,1.202283263206482,7.163111686706543,1.228285789489746,4.722383975982666,2.76631498336792,,,,,,
8514784000.0,415.04,24.229999542236328,6529777152.0,3635.3025659125788,139.0,0.03498052805662155,2293760.0,2961.9350492954254,0.010663628578186035,0.0814208984375,2.314394474029541,-0.01846884936094284,0.24012494087219238,-0.023143945261836052,0.0046750931069254875,0.0,0.09875449538230896,0.6781491637229919,0.728226097678689,7.180706024169922,1.1783287525177002,7.279460430145264,1.3008322715759277,4.506915092468262,2.761348247528076,,,,,,
8514784000.0,413.85,23.809999465942383,6529777152.0,3613.0539463766554,140.0,0.026257045567035675,2310144.0,2966.4697172641754,0.004700373858213425,0.0491943359375,2.317202568054199,-0.021135970950126648,0.18692289292812347,-0.02317202463746071,0.002036054152995348,0.0,0.07743622362613678,0.6078589558601379,0.7241079147668708,7.270490646362305,1.0621185302734375,7.347927570343018,1.1572685241699219,4.53466796875,2.7646729946136475,,,,,,
8514784000.0,407.49,23.649999618530273,6529777152.0,3468.004674776705,141.0,0.030098140239715576,2326528.0,2971.194047689438,0.006802404299378395,0.0640869140625,2.3117520809173584,-0.021307338029146194,0.2011725902557373,-0.023117519915103912,0.0018101857276633382,0.0,0.09444126486778259,0.6190584301948547,0.7268277397824413,7.360280990600586,1.1020042896270752,7.4547224044799805,1.1844426393508911,4.724330425262451,2.760206699371338,,,,,,
8514784000.0,408.4,23.520000457763672,6529777152.0,3659.134380017737,142.0,0.02867647260427475,2342912.0,2975.671609401703,0.004222207702696323,0.0452880859375,2.3228986263275146,-0.022996801882982254,0.18907062709331512,-0.02322898432612419,0.00023218803107738495,0.0,0.07429437339305878,0.6028146147727966,0.7083966996840012,7.5466203689575195,1.0131850242614746,7.620914459228516,1.1163158416748047,4.477561712265015,2.7664103507995605,,,,,,
8514784000.0,391.07,22.420000076293945,6529777152.0,3668.2063287823635,143.0,0.03080970048904419,2359296.0,2980.138097524643,0.0055222040973603725,0.0579833984375,2.297605514526367,-0.021491456776857376,0.25376182794570923,-0.02297605201601982,0.001484595239162445,0.0,0.0567614883184433,0.7053984999656677,0.727766651216624,7.36264705657959,1.1645032167434692,7.419407844543457,1.3519586324691772,4.4664881229400635,2.7586476802825928,,,,,,
8514784000.0,385.17,22.350000381469727,6529777152.0,3524.123802714437,144.0,0.02993709407746792,2375680.0,2984.7871963977814,0.008058592677116394,0.0887451171875,2.3003106117248535,-0.019317321479320526,0.26822465658187866,-0.02300310507416725,0.0036857817322015762,0.0,0.0322188064455986,0.7306457757949829,0.7197579387712376,7.568933010101318,1.140368938446045,7.601151466369629,1.3801919221878052,4.649098873138428,2.764993667602539,,,,,,
8514784000.0,385.19,21.219999313354492,6529777152.0,3541.2075473642694,145.0,0.025276418775320053,2392064.0,2989.4138667583466,0.005060174502432346,0.05010986328125,2.287616491317749,-0.019768113270401955,0.23999807238578796,-0.022876165807247162,0.003108052536845207,0.0,0.029631756246089935,0.7012783885002136,0.7429880514723881,7.542040824890137,1.185654878616333,7.571672439575195,1.3832916021347046,4.6266703605651855,2.7621850967407227,,,,,,
8514784000.0,389.62,22.780000686645508,6529777152.0,3611.593911012318,146.0,0.03573742136359215,2408448.0,2993.9503679275513,0.007400372996926308,0.06365966796875,2.278010845184326,-0.020300179719924927,0.1915619671344757,-0.022780105471611023,0.00247992854565382,0.0,0.11208272725343704,0.6107609272003174,0.7123282036435481,7.8264570236206055,1.0408852100372314,7.938539505004883,1.1387321949005127,4.536501169204712,2.7682156562805176,,,,,,
8514784000.0,398.77,24.219999313354492,6529777152.0,3506.174282985216,147.0,0.027084948495030403,2424832.0,2998.6232674121857,0.0048396894708275795,0.04840087890625,2.2521774768829346,-0.02107362449169159,0.1960943341255188,-0.022521771490573883,0.0014481493271887302,0.0,0.04950578138232231,0.6341820359230042,0.8090423494650466,7.841306686401367,1.310711145401001,7.890812397003174,1.451261281967163,4.672899484634399,2.8411288261413574,,,,,,
8514784000.0,398.24,23.8799991607666,6529777152.0,3513.789696346843,148.0,0.029991483315825462,2441216.0,3003.286039352417,0.0042983670718967915,0.0322265625,2.269047975540161,-0.019021660089492798,0.3008975088596344,-0.022690478712320328,0.0036688148975372314,0.0,0.01959487795829773,0.7693642377853394,0.7212288163147693,7.899509429931641,1.2835062742233276,7.919104099273682,1.4571640491485596,4.662771940231323,2.761651039123535,,,,,,
8514784000.0,393.04,23.790000915527344,6529777152.0,3554.482780851537,149.0,0.03297148644924164,2457600.0,3007.895430088043,0.005458047613501549,0.0511474609375,2.2728898525238037,-0.020291686058044434,0.21575750410556793,-0.022728899493813515,0.002437212970107794,0.0,0.09690717607736588,0.6502032279968262,0.7910165097539751,7.909509181976318,1.3112983703613281,8.006416320800781,1.4223064184188843,4.609390735626221,2.767732858657837,,,,,,
8514784000.0,383.17,23.559999465942383,6529777152.0,3541.041130495264,150.0,0.03319030627608299,2473984.0,3012.5223178863525,0.00536931911483407,0.0614013671875,2.274317502975464,-0.01892048679292202,0.22634589672088623,-0.02274317666888237,0.0038226882461458445,0.0,0.052379533648490906,0.6418635845184326,0.7024288313721163,8.11965560913086,1.1173069477081299,8.172035217285156,1.1766523122787476,4.626887798309326,2.756736993789673,,,,,,
8514784000.0,394.2,23.770000457763672,6529777152.0,3448.1492518081345,151.0,0.02938653901219368,2490368.0,3017.2738523483276,0.0035600715782493353,0.02935791015625,2.286346435546875,-0.02128370851278305,0.312777042388916,-0.022863466292619705,0.0015797577798366547,0.0,-0.01849493756890297,0.7594293355941772,0.6794323628849313,8.223766326904297,1.1975183486938477,8.20527172088623,1.3413006067276,4.751534461975098,2.7612123489379883,,,,,,
8514784000.0,397.73,23.389999389648438,6529777152.0,3468.5425845331197,152.0,0.02749715745449066,2506752.0,3021.9974501132965,0.0034632731694728136,0.035888671875,2.295482635498047,-0.02068030647933483,0.2564068138599396,-0.022954825311899185,0.002274519531056285,0.0,0.0010409406386315823,0.6700882911682129,0.7442331662399964,8.37313461303711,1.1943856477737427,8.374176025390625,1.324981451034546,4.723597764968872,2.7622833251953125,,,,,,
8514784000.0,398.1,22.979999542236328,6529777152.0,3554.043056587189,153.0,0.02935665473341942,2523136.0,3026.607411146164,0.004938294179737568,0.04693603515625,2.2989282608032227,-0.020153166726231575,0.25759539008140564,-0.02298928052186966,0.00283611286431551,0.0,-0.01848214864730835,0.707040011882782,0.7155317411340358,8.593358039855957,1.1383976936340332,8.574874877929688,1.3256396055221558,4.609961032867432,2.781531810760498,,,,,,
8514784000.0,412.51,24.270000457763672,6529777152.0,3577.3930120467753,154.0,0.03094690665602684,2539520.0,3031.187282562256,0.005002133082598448,0.05401611328125,2.292609691619873,-0.022374607622623444,0.22872871160507202,-0.022926095873117447,0.000551488483324647,0.0,-0.002147446386516094,0.6714731454849243,0.7351530093818639,8.699724197387695,1.1904419660568237,8.697576522827148,1.304761528968811,4.579871416091919,2.7675986289978027,,,,,,
8514784000.0,402.26,23.399999618530273,6529777152.0,3526.98268726922,155.0,0.03139965981245041,2555904.0,3035.832612991333,0.004924597218632698,0.04693603515625,2.2925662994384766,-0.021639704704284668,0.3119271695613861,-0.022925661876797676,0.0012859562411904335,0.0,-0.013429990038275719,0.7785506844520569,0.697555490399137,8.786439895629883,1.2385120391845703,8.77301025390625,1.4156726598739624,4.645330429077148,2.758835792541504,,,,,,
8514784000.0,390.63,23.31999969482422,6529777152.0,3504.947166344417,156.0,0.028582027181982994,2572288.0,3040.507148504257,0.0030705442186444998,0.0260009765625,2.2926578521728516,-0.022204749286174774,0.2990769147872925,-0.022926578298211098,0.0007218285463750362,0.0,-0.015082435682415962,0.7633987069129944,0.6187811525421956,8.749642372131348,1.091170072555542,8.734560012817383,1.2364139556884766,4.674535512924194,2.7734200954437256,,,,,,
8514784000.0,380.67,22.600000381469727,6529777152.0,3492.077554795342,157.0,0.0308576337993145,2588672.0,3045.1989114284515,0.0060669369995594025,0.05706787109375,2.3050765991210938,-0.01842576079070568,0.31926366686820984,-0.023050766438245773,0.0046250056475400925,0.0,-0.08930165320634842,0.8009730577468872,0.650727679327347,8.98660945892334,1.0725700855255127,8.897308349609375,1.355303168296814,4.691762924194336,2.7796647548675537,,,,,,
8514784000.0,391.76,23.110000610351562,6529777152.0,3387.8374101738045,158.0,0.027523566037416458,2605056.0,3050.0350348949432,0.0048407893627882,0.0594482421875,2.281808853149414,-0.02150280401110649,0.20447875559329987,-0.02281809039413929,0.001315288245677948,0.0,-0.016629338264465332,0.6340998411178589,0.7292312675215773,9.029068946838379,1.1596826314926147,9.012439727783203,1.218592882156372,4.836123466491699,2.920705556869507,,,,,,
8514784000.0,395.88,23.270000457763672,6529777152.0,3657.3121752593934,159.0,0.032915398478507996,2621440.0,3054.514827489853,0.004706282168626785,0.05029296875,2.286008358001709,-0.022367581725120544,0.2844865918159485,-0.022860081866383553,0.0004925010725855827,0.0,-0.051521673798561096,0.7442092299461365,0.6769264631293401,8.715164184570312,1.1154505014419556,8.663642883300781,1.3093189001083374,4.479792594909668,2.7535080909729004,,,,,,
,,,,,,,,,,,,,,,,,,,,,,,,,,0.022728577256202698,1.015933871269226,0.8770304918289185,0.022728577256202698,1.015933871269226,0.8770304918289185
,,,,,,,,,,,,,,,,,,,,,,,,,,0.016607612371444702,0.878290593624115,0.8043151497840881,0.016607612371444702,0.878290593624115,0.8043151497840881
,,,,,,,,,,,,,,,,,,,,,,,,,,0.015943612903356552,0.8381505608558655,0.7696287035942078,0.015943612903356552,0.8381505608558655,0.7696287035942078
,,,,,,,,,,,,,,,,,,,,,,,,,,0.01577204279601574,0.7970451712608337,0.7403073906898499,0.01577204279601574,0.7970451712608337,0.7403073906898499
,,,,,,,,,,,,,,,,,,,,,,,,,,0.016927409917116165,0.8038527369499207,0.7437330484390259,0.016927409917116165,0.8038527369499207,0.7437330484390259
,,,,,,,,,,,,,,,,,,,,,,,,,,0.01647757738828659,0.7698842883110046,0.7176492810249329,0.01647757738828659,0.7698842883110046,0.7176492810249329
8514784000.0,398.94,24.0,6327188480.0,28.219736659920933,160.0,0.03148169070482254,2637824.0,3635.1013934612274,0.005544680170714855,0.07879638671875,2.2789173126220703,-0.021655196323990822,0.19903495907783508,-0.02278917469084263,0.0011339765042066574,0.0,0.1193874329328537,0.6328139305114746,0.7697714161017706,7.528786659240723,1.2505539655685425,7.648174285888672,1.318855881690979,580.5865659713745,2.7738773822784424,,,,,,
8514784000.0,401.01,24.280000686645508,6529777152.0,3481.683642756475,161.0,0.026701970025897026,2654208.0,3639.8071627616882,0.004826523829251528,0.05120849609375,2.2745962142944336,-0.02107342518866062,0.1922617256641388,-0.02274595946073532,0.0016725324094295502,0.0,0.0674673467874527,0.6228345036506653,0.7563885428495553,7.689749240875244,1.2052606344223022,7.757216453552246,1.261897325515747,4.705769300460815,2.8522377014160156,,,,,,
8514784000.0,402.75,23.290000915527344,6529777152.0,3610.4791243155432,162.0,0.032375261187553406,2670592.0,3644.345064640045,0.0031776027753949165,0.028076171875,2.262118339538574,-0.022275777533650398,0.24177959561347961,-0.022621184587478638,0.0003454056568443775,0.0,0.032919954508543015,0.6949795484542847,0.7172297346265366,7.781623363494873,1.2057690620422363,7.814543724060059,1.3069404363632202,4.537901878356934,2.7660820484161377,,,,,,
8514784000.0,410.95,24.489999771118164,6529777152.0,3468.3704982761988,163.0,0.026962026953697205,2686976.0,3649.0688967704773,0.004251704551279545,0.045654296875,2.234300136566162,-0.020335033535957336,0.1466585397720337,-0.022343002259731293,0.0020079705864191055,0.0,0.09557805210351944,0.5369390845298767,0.7365268084021677,7.689574718475342,0.9866589903831482,7.785152912139893,1.0460610389709473,4.723832130432129,2.7558538913726807,,,,,,
8514784000.0,411.56,23.559999465942383,6529777152.0,3416.3589825198114,164.0,0.03180590271949768,2703360.0,3653.864645719528,0.007668683305382729,0.1004638671875,2.196385145187378,-0.01917252689599991,0.20933188498020172,-0.021963849663734436,0.002791323233395815,0.0,0.04522346332669258,0.6474471688270569,0.7133041663133348,7.759956359863281,1.1178685426712036,7.805180072784424,1.2091870307922363,4.795748949050903,2.7498509883880615,,,,,,
8514784000.0,410.82,24.1299991607666,6529777152.0,3573.7480793168015,165.0,0.030167317017912865,2719744.0,3658.449188232422,0.00643864506855607,0.07769775390625,2.223623752593994,-0.018259014934301376,0.17610616981983185,-0.022236235439777374,0.003977222368121147,0.0,0.09062093496322632,0.5885930061340332,0.6915767418837098,7.834948539733887,0.8914631009101868,7.9255690574646,1.0598398447036743,4.584542512893677,2.7499547004699707,,,,,,
8514784000.0,403.06,24.239999771118164,6529777152.0,3581.9008350083227,166.0,0.030163217335939407,2736128.0,3663.023295879364,0.011807315982878208,0.13336181640625,2.2103729248046875,-0.01575278304517269,0.22302837669849396,-0.022103728726506233,0.006350943818688393,0.0,0.060188814997673035,0.6610323190689087,0.6495134649871442,7.855014324188232,0.9561383128166199,7.91520357131958,1.1165752410888672,4.574107646942139,2.747764825820923,,,,,,
8514784000.0,404.8,24.299999237060547,6529777152.0,3580.7367576213032,167.0,0.031987980008125305,2752512.0,3667.598890542984,0.010218012146651745,0.135986328125,2.219694137573242,-0.016965437680482864,0.22262553870677948,-0.02219693921506405,0.005231507122516632,0.0,0.027072086930274963,0.6616965532302856,0.6513769129002107,8.002450942993164,0.976130485534668,8.029522895812988,1.1206789016723633,4.575594663619995,2.768141746520996,,,,,,
8514784000.0,403.48,24.059999465942383,6529777152.0,3519.952692131232,168.0,0.02817991003394127,2768896.0,3672.2534985542297,0.003347178688272834,0.03765869140625,2.217463254928589,-0.021616153419017792,0.17397834360599518,-0.02217463031411171,0.0005584768950939178,0.0,0.03510699421167374,0.588318407535553,0.7149582997767056,8.13794994354248,0.9672788977622986,8.173057556152344,1.101945161819458,4.6546080112457275,2.764451503753662,,,,,,
8514784000.0,400.24,23.399999618530273,6529777152.0,3628.5479522969035,169.0,0.03061247244477272,2785280.0,3676.768803358078,0.005031771957874298,0.0540771484375,2.2116892337799072,-0.020778443664312363,0.20702914893627167,-0.0221168901771307,0.0013384399935603142,0.0,0.017363291233778,0.6415590643882751,0.7142753035937772,8.085763931274414,1.0005252361297607,8.103126525878906,1.2002261877059937,4.515304803848267,2.7555060386657715,,,,,,
8514784000.0,392.97,23.34000015258789,6529777152.0,3556.1923413771924,170.0,0.030324561521410942,2801664.0,3681.37597823143,0.00428391108289361,0.0430908203125,2.203998565673828,-0.020514724776148796,0.22630667686462402,-0.02203998528420925,0.0015252574812620878,0.0,0.019875386729836464,0.6652746796607971,0.6973824438759342,8.11142349243164,1.0135647058486938,8.131299018859863,1.2093536853790283,4.607174873352051,2.7601747512817383,,,,,,
8514784000.0,397.18,23.100000381469727,6529777152.0,3523.8173167813848,171.0,0.028156671673059464,2818048.0,3686.0254814624786,0.003618586342781782,0.03302001953125,2.2249345779418945,-0.01902277208864689,0.13071750104427338,-0.02224934659898281,0.0032265745103359222,0.0,0.06123758479952812,0.5108827352523804,0.706396790841286,8.120697021484375,0.8884761333465576,8.181934356689453,0.9428510665893555,4.649503231048584,2.7645843029022217,,,,,,
8514784000.0,416.28,25.6200008392334,6529777152.0,3539.3736289007506,172.0,0.03497368469834328,2834432.0,3690.6545491218567,0.003897431306540966,0.0391845703125,2.2192447185516357,-0.0221962071955204,0.15306900441646576,-0.022192446514964104,-3.7606805562973022e-06,0.0,0.06091540306806564,0.5550128221511841,0.715669403117601,8.079583168029785,0.9668956995010376,8.140499114990234,1.0408581495285034,4.629067659378052,2.7549610137939453,,,,,,
8514784000.0,419.76,26.469999313354492,6529777152.0,3646.93053351094,173.0,0.02948164753615856,2850816.0,3695.1470942497253,0.005151654593646526,0.05279541015625,2.2305374145507812,-0.0211117435246706,0.14103750884532928,-0.02230537310242653,0.0011936286464333534,0.0,0.09137959778308868,0.520413339138031,0.7701188076849128,8.246105194091797,1.0475472211837769,8.337484359741211,1.0854116678237915,4.492545127868652,2.765596866607666,,,,,,
8514784000.0,410.48,25.209999084472656,6529777152.0,3551.0212434539176,174.0,0.031527746468782425,2867200.0,3699.7609782218933,0.003285591723397374,0.0328369140625,2.20578670501709,-0.02159915864467621,0.19197119772434235,-0.02205786667764187,0.00045871175825595856,0.0,0.024726323783397675,0.619443416595459,0.7264369750669297,8.161785125732422,0.9950659871101379,8.186511039733887,1.184328317642212,4.613883972167969,2.76456618309021,,,,,,
8514784000.0,399.5,24.0,6529777152.0,3680.547112566845,175.0,0.03104417398571968,2883584.0,3704.2124903202057,0.00392984738573432,0.03448486328125,2.1983938217163086,-0.019806090742349625,0.22254355251789093,-0.02198394201695919,0.002177850343286991,0.0,0.04038809984922409,0.6635247468948364,0.6664466899464407,8.278749465942383,0.9420951008796692,8.319136619567871,1.1488780975341797,4.451512098312378,2.758801221847534,,,,,,
8514784000.0,395.78,23.790000915527344,6529777152.0,3493.028439374477,176.0,0.030883723869919777,2899968.0,3708.902976036072,0.003400280140340328,0.0345458984375,2.219214916229248,-0.020462682470679283,0.1689262092113495,-0.022192148491740227,0.0017294669523835182,0.0,0.06921522319316864,0.5773769617080688,0.6634324942804548,8.351957321166992,0.876652717590332,8.421173095703125,0.9952305555343628,4.690485715866089,2.7548067569732666,,,,,,
8514784000.0,396.65,24.399999618530273,6529777152.0,3502.011084724088,177.0,0.032911140471696854,2916352.0,3713.5814306735992,0.0042773159220814705,0.038330078125,2.2121686935424805,-0.021190013736486435,0.2380380779504776,-0.02212168462574482,0.0009316692594438791,0.0,-0.012557095848023891,0.674872875213623,0.6161027088055031,8.234397888183594,0.8822385668754578,8.221840858459473,1.0892126560211182,4.678454637527466,2.7580649852752686,,,,,,
8514784000.0,387.65,23.40999984741211,6529777152.0,3605.9821945402327,178.0,0.028350265696644783,2932736.0,3718.1249916553497,0.005799367558211088,0.057373046875,2.1946654319763184,-0.020551282912492752,0.28166210651397705,-0.021946649998426437,0.0013953670859336853,0.0,-0.04500960558652878,0.7344671487808228,0.7440518951544488,8.343762397766113,1.2105907201766968,8.298751831054688,1.4517631530761719,4.543560981750488,2.760481595993042,,,,,,
8514784000.0,378.74,21.940000534057617,6529777152.0,3582.8633519297455,179.0,0.026899516582489014,2949120.0,3722.697870492935,0.0037063229829072952,0.0418701171875,2.238745927810669,-0.020825054496526718,0.21852229535579681,-0.022387459874153137,0.001562408171594143,0.0,-0.048084624111652374,0.6526505947113037,0.7430398873040118,8.541744232177734,1.0694208145141602,8.493659973144531,1.2875070571899414,4.572878837585449,2.7579891681671143,,,,,,
8514784000.0,392.49,22.770000457763672,6529777152.0,3498.224389997568,180.0,0.03200714662671089,2965504.0,3727.3813893795013,0.0029744277708232403,0.02496337890625,2.2358486652374268,-0.02094413712620735,0.20902886986732483,-0.0223584845662117,0.001414349302649498,0.0,0.033661216497421265,0.6306264400482178,0.7141932651785271,8.690298080444336,1.0782889127731323,8.723959922790527,1.17960524559021,4.683518886566162,2.755720615386963,,,,,,
8514784000.0,401.83,24.329999923706055,6529777152.0,3642.807144387991,181.0,0.030757756903767586,2981888.0,3731.8790197372437,0.0043996041640639305,0.04888916015625,2.244551181793213,-0.0212561022490263,0.20043930411338806,-0.022445514798164368,0.0011894102208316326,0.0,0.026370255276560783,0.6287359595298767,0.7285447731530875,8.54361343383789,1.0470904111862183,8.569984436035156,1.2067618370056152,4.49763035774231,2.7644529342651367,,,,,,
8514784000.0,399.45,24.639999389648438,6529777152.0,3519.4459440330083,182.0,0.029818177223205566,2998272.0,3736.5342979431152,0.005849698558449745,0.04669189453125,2.2596004009246826,-0.020961295813322067,0.24915404617786407,-0.022596003487706184,0.001634705811738968,0.0,-0.009073566645383835,0.7038660645484924,0.6545565345927604,8.538934707641602,0.9891115427017212,8.529861450195312,1.197570562362671,4.655278205871582,2.770106077194214,,,,,,
8514784000.0,398.67,24.100000381469727,6529777152.0,3547.3184884426328,183.0,0.03467217832803726,3014656.0,3741.152997970581,0.0015828382456675172,0.010986328125,2.259242057800293,-0.02230345644056797,0.23441796004772186,-0.022592419758439064,0.00028896331787109375,0.0,0.019775360822677612,0.6665721535682678,0.5956937224336298,8.728570938110352,0.9314343929290771,8.748346328735352,1.0483105182647705,4.61870002746582,2.7814388275146484,,,,,,
