CpuMaxMemory,EpLenMean,EpRewMean,GpuMaxMemory,IPS_total,Iter,Misc/FrameRewMean,Misc/InteractCount,Misc/TimeElapsed,Opt/approxkl,Opt/clipfrac,Opt/entropy,Opt/loss_pi,Opt/loss_vf,Opt/negent,Opt/pg,Opt/pi_kl,VFStats/AdvMean,VFStats/AdvStd,VFStats/EV,VFStats/VpredMean,VFStats/VpredStd,VFStats/VtargMean,VFStats/VtargStd,del_time,wait_optimization,scaled/pol_distance,scaled/vf_aux,scaled/vf_true,unscaled/pol_distance,unscaled/vf_aux,unscaled/vf_true
2364204000.0,84.23,-2.3299999237060547,6317166080.0,3472.3912343484767,0.0,-0.011797280982136726,16384.0,4.718362331390381,0.005443587899208069,0.05072021484375,2.7004358768463135,-0.026490002870559692,0.16438661515712738,-0.027004361152648926,0.0005143564194440842,0.0,-0.186751589179039,0.5554361343383789,0.0003713393836179968,0.03456633538007736,0.010367376729846,-0.15218524634838104,0.5555393099784851,4.718362331390381,2.7406177520751953,,,,,,
2563316000.0,81.19,-2.690000057220459,6519754752.0,3614.8136705593015,1.0,-0.013473287224769592,32768.0,9.25082278251648,0.0018430103082209826,0.0108642578125,2.7030677795410156,-0.027588531374931335,0.16063183546066284,-0.02703067660331726,-0.0005578574491664767,0.0,-0.16286349296569824,0.5572592616081238,0.01591761026663041,-0.10241363942623138,0.021976277232170105,-0.2652771472930908,0.5617480874061584,4.532460451126099,2.7226884365081787,,,,,,
2761316000.0,72.65,-1.649999976158142,6519754752.0,3589.027183223113,2.0,-0.011298108845949173,49152.0,13.815848112106323,0.004371866583824158,0.04541015625,2.682206869125366,-0.027622641995549202,0.14626693725585938,-0.02682206779718399,-0.0008005741983652115,0.0,-0.08991153538227081,0.5409871339797974,0.03546788374547627,-0.2797131836414337,0.04344460740685463,-0.3696247339248657,0.5508440136909485,4.565025329589844,2.731870412826538,,,,,,
2959316000.0,83.36,-2.390000104904175,6519754752.0,3613.1390518108738,3.0,-0.013268426060676575,65536.0,18.350409269332886,0.000937606964726001,0.00146484375,2.699450969696045,-0.027072452008724213,0.1797252893447876,-0.026994511485099792,-7.794052362442017e-05,0.0,-0.12706385552883148,0.6016892194747925,0.11121790158884737,-0.3210667371749878,0.11055481433868408,-0.4481305778026581,0.6382260918617249,4.5345611572265625,2.7319295406341553,,,,,,
3157052000.0,80.21,-1.7400000095367432,6519754752.0,3570.2253787392706,4.0,-0.011642532423138618,81920.0,22.939475297927856,0.003050181781873107,0.02398681640625,2.6844968795776367,-0.02717895805835724,0.1581284999847412,-0.026844967156648636,-0.0003339909017086029,0.0,-0.06084496155381203,0.5611867308616638,0.1955104532630373,-0.43353620171546936,0.2199498564004898,-0.4943811297416687,0.6256725788116455,4.589066028594971,2.7382800579071045,,,,,,
3355052000.0,76.72,-1.5199999809265137,6519754752.0,3572.2581649879126,5.0,-0.010275159031152725,98304.0,27.525929927825928,0.002733403816819191,0.02423095703125,2.681628465652466,-0.027470607310533524,0.15095707774162292,-0.02681628242135048,-0.0006543267518281937,0.0,-0.006177084520459175,0.5500083565711975,0.19222313377736178,-0.5355802774429321,0.2227291315793991,-0.541757345199585,0.6119607090950012,4.586454629898071,2.7479746341705322,,,,,,
3552788000.0,75.39,-1.4500000476837158,6519754752.0,3564.234416171416,6.0,-0.009920714423060417,114688.0,32.12270951271057,0.0018157361773774028,0.0,2.673534393310547,-0.02625996619462967,0.15649554133415222,-0.026735343039035797,0.000475378124974668,0.0,-0.007416478358209133,0.5487723350524902,0.1781963764380653,-0.4616948366165161,0.2263101488351822,-0.4691113233566284,0.6053523421287537,4.5967795848846436,2.760371446609497,,,,,,
3751580000.0,73.96,-1.590000033378601,6519754752.0,3562.8521686616873,7.0,-0.009602665901184082,131072.0,36.721272468566895,0.0013318420387804508,0.0,2.6784048080444336,-0.02624187059700489,0.14433951675891876,-0.02678404375910759,0.0005421717651188374,0.0,0.020178813487291336,0.5379665493965149,0.24201601311585674,-0.5927049517631531,0.24157673120498657,-0.572526216506958,0.6179100275039673,4.598562955856323,2.759991407394409,,,,,,
3948524000.0,72.72,-1.8700000047683716,6519754752.0,3630.480074207747,8.0,-0.013012764975428581,147456.0,41.2341742515564,0.0033805384300649166,0.028076171875,2.648263692855835,-0.025352131575345993,0.1626390516757965,-0.026482636108994484,0.0011305040679872036,0.0,0.00030522141605615616,0.5743067264556885,0.36220450888500955,-0.7168905735015869,0.3514299690723419,-0.7165852785110474,0.7191230654716492,4.512901782989502,2.7564263343811035,,,,,,
4146524000.0,76.49,-1.5299999713897705,6519754752.0,3597.8534983946706,9.0,-0.008179789409041405,163840.0,45.78800058364868,0.0030883445870131254,0.03411865234375,2.666934013366699,-0.027246879413723946,0.14212842285633087,-0.026669342070817947,-0.0005775389727205038,0.0,0.06850883364677429,0.5324907898902893,0.4042886148919639,-0.6745373010635376,0.39779314398765564,-0.6060284376144409,0.6899126768112183,4.553826332092285,2.758066415786743,,,,,,
4344260000.0,74.97,-2.069999933242798,6519754752.0,3597.1730535557294,10.0,-0.010108618065714836,180224.0,50.34268832206726,0.0012867822078987956,0.005615234375,2.657182216644287,-0.02654728665947914,0.15694233775138855,-0.026571819558739662,2.453569322824478e-05,0.0,0.04747553914785385,0.5470812320709229,0.48986655433858795,-0.7036656141281128,0.4578259587287903,-0.656190037727356,0.7659667134284973,4.554687738418579,2.7591285705566406,,,,,,
4542260000.0,71.51,-1.559999942779541,6519754752.0,3566.4417661328484,11.0,-0.010780916549265385,196608.0,54.936622858047485,0.002169263083487749,0.0076904296875,2.641287326812744,-0.02626350149512291,0.1344934105873108,-0.026412872597575188,0.00014937296509742737,0.0,0.004039561841636896,0.5020850300788879,0.566783764065099,-0.5777473449707031,0.48737627267837524,-0.5737078189849854,0.7628250122070312,4.593934535980225,2.7609572410583496,,,,,,
4739996000.0,76.02,-1.5,6519754752.0,3607.994348132523,12.0,-0.012229490093886852,212992.0,59.47764992713928,0.002023388398811221,0.00506591796875,2.6604716777801514,-0.025201965123414993,0.16312573850154877,-0.02660471573472023,0.0014027473516762257,0.0,-0.04303830862045288,0.5287800431251526,0.49524907328172074,-0.38631826639175415,0.43115657567977905,-0.42935657501220703,0.744280219078064,4.541027069091797,2.762131452560425,,,,,,
4938788000.0,73.67,-1.2000000476837158,6519754752.0,3522.8017404167476,13.0,-0.008764722384512424,229376.0,64.12849354743958,0.0025750980712473392,0.01824951171875,2.6230199337005615,-0.026710178703069687,0.1226983442902565,-0.02623019926249981,-0.0004799775779247284,0.0,0.05297766625881195,0.49857044219970703,0.5828885448790326,-0.5600975751876831,0.5248822569847107,-0.50711989402771,0.7719700932502747,4.650843620300293,2.77189564704895,,,,,,
5135732000.0,72.87,-1.5399999618530273,6519754752.0,3570.797695155167,14.0,-0.009412309154868126,245760.0,68.71682405471802,0.0014262436889111996,0.00604248046875,2.631530523300171,-0.025861699134111404,0.11647786945104599,-0.02631530724465847,0.00045360904186964035,0.0,0.04044504091143608,0.488127201795578,0.6518111744861783,-0.5978846549987793,0.6284701228141785,-0.5574396848678589,0.8272287249565125,4.588330507278442,2.776186466217041,,,,,,
5333468000.0,70.4,-1.690000057220459,6519754752.0,3572.1525062905607,15.0,-0.012581910938024521,262144.0,73.3034143447876,0.0036622928455471992,0.01336669921875,2.5637340545654297,-0.025885866954922676,0.1256008744239807,-0.025637339800596237,-0.0002485280856490135,0.0,-0.0036392572801560163,0.4843433201313019,0.6979299130790654,-0.49728935956954956,0.6770610213279724,-0.5009286403656006,0.8812506198883057,4.58659029006958,2.761955499649048,,,,,,
5531468000.0,73.87,-1.2899999618530273,6519754752.0,3620.767299543533,16.0,-0.010409407317638397,278528.0,77.82842206954956,0.001975404331460595,0.0172119140625,2.5521388053894043,-0.025922628119587898,0.09638011455535889,-0.025521382689476013,-0.0004012421704828739,0.0,-0.02041970193386078,0.44239428639411926,0.7305278958071239,-0.33638155460357666,0.6952855587005615,-0.35680127143859863,0.8522217869758606,4.525007724761963,2.771252155303955,,,,,,
5729468000.0,69.44,-1.0099999904632568,6519754752.0,3611.3120658785692,17.0,-0.008926426991820335,294912.0,82.36527729034424,0.0027420225087553263,0.00909423828125,2.600315570831299,-0.024934373795986176,0.10330071300268173,-0.026003152132034302,0.0010687815956771374,0.0,0.010452447459101677,0.4488893151283264,0.726027503665616,-0.30050256848335266,0.7631927132606506,-0.29005011916160583,0.857602059841156,4.536855220794678,2.762868881225586,,,,,,
5927204000.0,74.28,-1.309999942779541,6519754752.0,3593.1630421125365,18.0,-0.009271100163459778,311296.0,86.92504811286926,0.002221529372036457,0.01397705078125,2.5707907676696777,-0.025448955595493317,0.1094219759106636,-0.02570790797472,0.00025895144790410995,0.0,0.030816446989774704,0.43805861473083496,0.7595436818467988,-0.392270565032959,0.805050790309906,-0.3614541292190552,0.8933345079421997,4.559770822525024,2.7774715423583984,,,,,,
6125996000.0,72.58,-1.6699999570846558,6519754752.0,3574.997815603517,19.0,-0.010139772668480873,327680.0,91.50798797607422,0.0035120686516165733,0.0216064453125,2.583977699279785,-0.025059539824724197,0.09383590519428253,-0.025839777663350105,0.0007802362088114023,0.0,-0.01609066128730774,0.4314742684364319,0.7433269775694207,-0.35888755321502686,0.659889817237854,-0.374978244304657,0.8516571521759033,4.582939863204956,2.7724390029907227,,,,,,
6322940000.0,72.42,-1.4199999570846558,6519754752.0,3539.3111030765253,20.0,-0.009367265738546848,344064.0,96.1371374130249,0.003439097199589014,0.0413818359375,2.5142273902893066,-0.024928729981184006,0.09874947369098663,-0.025142274796962738,0.00021354621276259422,0.0,0.00192558066919446,0.42288678884506226,0.7664453438327312,-0.39536160230636597,0.7576407194137573,-0.3934360146522522,0.8750439286231995,4.629149436950684,2.7705466747283936,,,,,,
6520676000.0,74.7,-1.4700000286102295,6519754752.0,3604.4497846282893,21.0,-0.008379084058105946,360448.0,100.68263006210327,0.0027423740830272436,0.0244140625,2.5206377506256104,-0.02612587809562683,0.08113753795623779,-0.025206374004483223,-0.0009195040911436081,0.0,0.024155961349606514,0.3923720121383667,0.8161516337390027,-0.37983813881874084,0.8451318144798279,-0.3556821942329407,0.9150991439819336,4.545492649078369,2.78688645362854,,,,,,
6718940000.0,74.39,-1.590000033378601,6519754752.0,3555.2731608771287,22.0,-0.008817214518785477,376832.0,105.29099607467651,0.0018175491131842136,0.00750732421875,2.5529239177703857,-0.025043079629540443,0.08551245927810669,-0.02552924118936062,0.0004861587658524513,0.0,0.023455359041690826,0.3998798131942749,0.7738007658412058,-0.41741156578063965,0.727523684501648,-0.39395618438720703,0.8407830595970154,4.608366012573242,2.785731077194214,,,,,,
6916676000.0,72.29,-1.7000000476837158,6519754752.0,3528.5660565483718,23.0,-0.009258884936571121,393216.0,109.93424201011658,0.002071206457912922,0.01385498046875,2.541179656982422,-0.02536218799650669,0.08330840617418289,-0.02541179768741131,4.961155354976654e-05,0.0,0.005517514422535896,0.38353395462036133,0.7413590493343155,-0.2940375804901123,0.636847972869873,-0.28852006793022156,0.7541455626487732,4.6432459354400635,2.7807250022888184,,,,,,
7114676000.0,71.01,-1.0800000429153442,6519754752.0,3457.6260095154876,24.0,-0.007858788594603539,409600.0,114.67275333404541,0.0032019868958741426,0.020751953125,2.547703266143799,-0.02560453675687313,0.08397849649190903,-0.025477033108472824,-0.00012750178575515747,0.0,0.02009791135787964,0.39962849020957947,0.727054785166361,-0.30581775307655334,0.6805235147476196,-0.2857198715209961,0.7649247646331787,4.738511323928833,2.79036021232605,,,,,,
7313468000.0,77.22,-0.8399999737739563,6519754752.0,3495.8039978526485,25.0,-0.006334610283374786,425984.0,119.35951495170593,0.0012329494347795844,0.00872802734375,2.5760531425476074,-0.025012409314513206,0.07229066640138626,-0.025760531425476074,0.0007481221109628677,0.0,0.016141805797815323,0.3784141540527344,0.7430739329299465,-0.29790204763412476,0.6081770062446594,-0.28176024556159973,0.7465575933456421,4.6867616176605225,2.7726480960845947,,,,,,
7510412000.0,73.97,-1.440000057220459,6519754752.0,3552.365309999478,26.0,-0.010481161065399647,442368.0,123.97165322303772,0.0027851907070726156,0.01788330078125,2.534740447998047,-0.025561025366187096,0.08789660781621933,-0.025347400456666946,-0.00021362490952014923,0.0,-0.03633379936218262,0.41821181774139404,0.6988865873774743,-0.24376431107521057,0.594555139541626,-0.2800980806350708,0.7621338963508606,4.612138271331787,2.796114683151245,,,,,,
7708148000.0,72.91,-1.4299999475479126,6519754752.0,3471.5231012374466,27.0,-0.008381097577512264,458752.0,128.69119548797607,0.0015669288113713264,0.0115966796875,2.570618152618408,-0.025266215205192566,0.07640273123979568,-0.025706181302666664,0.00043996190652251244,0.0,0.006145142950117588,0.3873176872730255,0.7675675299534079,-0.27814334630966187,0.6982130408287048,-0.27199819684028625,0.8033761978149414,4.7195422649383545,2.807530641555786,,,,,,
7905884000.0,72.93,-1.5099999904632568,6519754752.0,3523.4191092798396,28.0,-0.01013406552374363,475136.0,133.341224193573,0.0038378704339265823,0.02862548828125,2.5209598541259766,-0.023722827434539795,0.07783760130405426,-0.025209598243236542,0.0014867736026644707,0.0,-0.013179624453186989,0.4012218415737152,0.7698596757162687,-0.32682883739471436,0.6952404975891113,-0.3400084376335144,0.8363502025604248,4.650028705596924,2.7766149044036865,,,,,,
8103884000.0,76.96,-1.2400000095367432,6519754752.0,3541.2462342280132,29.0,-0.010693443939089775,491520.0,137.9678440093994,0.001781185157597065,0.0123291015625,2.588121175765991,-0.025336820632219315,0.09666037559509277,-0.025881212204694748,0.0005443906411528587,0.0,-0.023074384778738022,0.4239102005958557,0.7502035814787238,-0.2972751259803772,0.7462852001190186,-0.3203495144844055,0.8481658697128296,4.626619815826416,2.786825180053711,,,,,,
8301620000.0,75.31,-1.0499999523162842,6519754752.0,3555.3581412164654,30.0,-0.01006955187767744,507904.0,142.5760998725891,0.004375798627734184,0.0523681640625,2.5649263858795166,-0.024388251826167107,0.11080896854400635,-0.025649264454841614,0.0012610126286745071,0.0,-0.044254060834646225,0.42637860774993896,0.7083570915234938,-0.17916631698608398,0.6220671534538269,-0.2234203815460205,0.7895318865776062,4.608255863189697,2.789426326751709,,,,,,
8500412000.0,72.98,-1.090000033378601,6519754752.0,3427.1451681323742,31.0,-0.007961995899677277,524288.0,147.35675525665283,0.002067278139293194,0.013916015625,2.588498115539551,-0.02499495819211006,0.07258772850036621,-0.02588498219847679,0.0008900254033505917,0.0,-0.05752323567867279,0.38997069001197815,0.6499460056926112,-0.09377573430538177,0.44291359186172485,-0.15129895508289337,0.6591199636459351,4.780655384063721,2.8255157470703125,,,,,,
,,,,,,,,,,,,,,,,,,,,,,,,,,0.0014171054353937507,0.17809146642684937,0.14016099274158478,0.0014171054353937507,0.17809146642684937,0.14016099274158478
,,,,,,,,,,,,,,,,,,,,,,,,,,0.0013148525031283498,0.12669962644577026,0.11743006855249405,0.0013148525031283498,0.12669962644577026,0.11743006855249405
,,,,,,,,,,,,,,,,,,,,,,,,,,0.0012399146798998117,0.11096270382404327,0.10700608044862747,0.0012399146798998117,0.11096270382404327,0.10700608044862747
,,,,,,,,,,,,,,,,,,,,,,,,,,0.0008016372448764741,0.10351616144180298,0.10189899802207947,0.0008016372448764741,0.10351616144180298,0.10189899802207947
,,,,,,,,,,,,,,,,,,,,,,,,,,0.0008631310192868114,0.10049417614936829,0.09945617616176605,0.0008631310192868114,0.10049417614936829,0.09945617616176605
,,,,,,,,,,,,,,,,,,,,,,,,,,0.0008744716760702431,0.09846414625644684,0.09761828184127808,0.0008744716760702431,0.09846414625644684,0.09761828184127808
8512512000.0,74.12,-1.309999942779541,6327188480.0,28.11677881564219,32.0,-0.008839410729706287,540672.0,730.0693094730377,0.0009175463346764445,0.00592041015625,2.5868442058563232,-0.02681153267621994,0.06804750859737396,-0.02586844004690647,-0.0009430926293134689,0.0,-0.03428087383508682,0.3869478404521942,0.7263156530203494,-0.2545575201511383,0.490694135427475,-0.28883838653564453,0.7396519780158997,582.7125542163849,2.797168016433716,,,,,,
8512512000.0,74.12,-1.0,6529777152.0,3450.869515061764,33.0,-0.007687304634600878,557056.0,734.8170983791351,0.003713668789714575,0.03094482421875,2.5375399589538574,-0.02629964053630829,0.06446430087089539,-0.025375397875905037,-0.0009242407977581024,0.0,0.02148442342877388,0.363038033246994,0.8280880139055213,-0.3775002956390381,0.7430035471916199,-0.3560158908367157,0.8755863308906555,4.747788906097412,2.965801477432251,,,,,,
8512512000.0,73.22,-0.7300000190734863,6529777152.0,3562.749836286977,34.0,-0.004713880829513073,573440.0,739.4157934188843,0.0034779945854097605,0.03460693359375,2.585531234741211,-0.02658388391137123,0.052287667989730835,-0.02585531212389469,-0.0007285680621862411,0.0,0.03359188139438629,0.3315674662590027,0.8297206843254251,-0.2665298581123352,0.7430899739265442,-0.2329379767179489,0.8035093545913696,4.5986950397491455,2.7759475708007812,,,,,,
8512512000.0,73.24,-0.47999998927116394,6529777152.0,3564.506741855232,35.0,-0.005020669661462307,589824.0,744.0122218132019,0.0030984668992459774,0.03155517578125,2.5372021198272705,-0.02600693702697754,0.05948997661471367,-0.02537202276289463,-0.0006349124014377594,0.0,0.015754181891679764,0.34929871559143066,0.8245059273098804,-0.23419155180454254,0.7495711445808411,-0.21843735873699188,0.8338074684143066,4.596428394317627,2.7701358795166016,,,,,,
8512512000.0,75.86,-0.7300000190734863,6529777152.0,3582.296498700756,36.0,-0.005331800319254398,606208.0,748.5858242511749,0.003340507857501507,0.03839111328125,2.589261770248413,-0.02618279494345188,0.06377352029085159,-0.02589261904358864,-0.00029017776250839233,0.0,0.01978185400366783,0.36389556527137756,0.760500187891389,-0.18330909311771393,0.6603204011917114,-0.163527250289917,0.7435739636421204,4.5736024379730225,2.7729732990264893,,,,,,
8512512000.0,73.31,-0.699999988079071,6529777152.0,3497.8582955507127,37.0,-0.004706291481852531,622592.0,753.2698333263397,0.0038398553151637316,0.0404052734375,2.542407751083374,-0.026218391954898834,0.07406941801309586,-0.02542407438158989,-0.0007943217642605305,0.0,0.02169973962008953,0.3730521500110626,0.7581567984345904,-0.18936687707901,0.6765231490135193,-0.16766712069511414,0.7585821151733398,4.684009075164795,2.771745204925537,,,,,,
8512512000.0,71.73,-0.2199999988079071,6529777152.0,3580.581902969764,38.0,-0.001011606422252953,638976.0,757.8456258773804,0.004500542767345905,0.0484619140625,2.556912422180176,-0.025568725541234016,0.052625622600317,-0.025569124147295952,4.00003045797348e-07,0.0,0.02806548960506916,0.32791197299957275,0.7205884580871367,-0.07950909435749054,0.5634106397628784,-0.05144360661506653,0.6203475594520569,4.575792551040649,2.772857666015625,,,,,,
8512512000.0,79.62,0.3799999952316284,6529777152.0,3610.0885900001363,39.0,0.0011171187506988645,655360.0,762.3840186595917,0.004036902450025082,0.04461669921875,2.5378756523132324,-0.02382311411201954,0.04309225454926491,-0.02537875436246395,0.0015556439757347107,0.0,0.04392309859395027,0.30527615547180176,0.7051346370730935,-0.05321350693702698,0.5242413878440857,-0.009290412068367004,0.5621873140335083,4.538392782211304,2.7762510776519775,,,,,,
8512512000.0,78.72,0.3499999940395355,6529777152.0,3570.9010470427183,40.0,0.002908970694988966,671744.0,766.9722163677216,0.0054087950848042965,0.06671142578125,2.593761682510376,-0.025152938440442085,0.041502323001623154,-0.02593761496245861,0.0007846783846616745,0.0,0.04109969362616539,0.2971689999103546,0.6662756937780445,0.04951015114784241,0.45797738432884216,0.0906098484992981,0.5144101977348328,4.588197708129883,2.7797179222106934,,,,,,
8512512000.0,76.43,0.8899999856948853,6529777152.0,3550.5970512872977,41.0,0.003923641052097082,688128.0,771.5866515636444,0.0032264627516269684,0.02716064453125,2.5755646228790283,-0.025699196383357048,0.04291402921080589,-0.02575564570724964,5.645008059218526e-05,0.0,0.0325038805603981,0.29492127895355225,0.6758779038534183,0.07791996002197266,0.43124091625213623,0.11042384058237076,0.5180262327194214,4.614435195922852,2.783599853515625,,,,,,
8512512000.0,81.11,0.6800000071525574,6529777152.0,3599.303197249969,42.0,0.0033404137939214706,704512.0,776.1386437416077,0.003631182014942169,0.0386962890625,2.5961055755615234,-0.025086142122745514,0.05249851569533348,-0.025961056351661682,0.000874918419867754,0.0,0.011864753440022469,0.3270396292209625,0.6096798633552496,0.12601272761821747,0.4043806493282318,0.13787749409675598,0.5234677791595459,4.551992177963257,2.7831075191497803,,,,,,
8512512000.0,81.58,0.3799999952316284,6529777152.0,3533.938681068708,43.0,0.004098251927644014,720896.0,780.7748305797577,0.005491152405738831,0.06304931640625,2.5838475227355957,-0.024019351229071617,0.0458860844373703,-0.025838475674390793,0.0018191258423030376,0.0,-0.0005893083289265633,0.3076210916042328,0.6378888804419292,0.2011091262102127,0.4367506206035614,0.20051980018615723,0.5112051367759705,4.636186838150024,2.779752731323242,,,,,,
8512512000.0,75.68,0.5699999928474426,6529777152.0,3518.8842028906174,44.0,0.004019137471914291,737280.0,785.4308519363403,0.0030640712939202785,0.03271484375,2.56315016746521,-0.025475677102804184,0.041939396411180496,-0.025631500408053398,0.00015582190826535225,0.0,0.015993937849998474,0.28629061579704285,0.7148341888719554,0.09890071302652359,0.4121488332748413,0.11489465832710266,0.5361155271530151,4.656021356582642,2.7897913455963135,,,,,,
8512512000.0,76.85,0.8700000047683716,6529777152.0,3497.7318896833835,45.0,0.006143919657915831,753664.0,790.1150302886963,0.004061577375978231,0.0494384765625,2.572561502456665,-0.02628934197127819,0.032108407467603683,-0.02572561427950859,-0.0005637276917695999,0.0,0.017582612112164497,0.2562183141708374,0.7360156080312531,0.19739937782287598,0.41805708408355713,0.21498198807239532,0.49867892265319824,4.684178352355957,2.78667950630188,,,,,,
8512512000.0,79.06,0.8700000047683716,6529777152.0,3591.023456584969,46.0,0.005871126428246498,770048.0,794.6775178909302,0.0061836461536586285,0.07318115234375,2.543022632598877,-0.02400342747569084,0.0320221409201622,-0.02543022483587265,0.0014267961960285902,0.0,0.023050105199217796,0.2563897669315338,0.7005144910972734,0.19907721877098083,0.40931710600852966,0.22212731838226318,0.4685034155845642,4.562487602233887,2.7816550731658936,,,,,,
8512512000.0,81.71,1.1299999952316284,6529777152.0,3561.2055900367154,47.0,0.008613018319010735,786432.0,799.2782070636749,0.005065908655524254,0.05950927734375,2.5289554595947266,-0.024747688323259354,0.017315229400992393,-0.02528955601155758,0.0005418676882982254,0.0,0.04553591087460518,0.19119375944137573,0.7813656432455374,0.22123080492019653,0.3861862123012543,0.2667667269706726,0.4088975489139557,4.600689172744751,2.785165309906006,,,,,,
8512512000.0,82.01,1.1399999856948853,6529777152.0,3603.981734512279,48.0,0.008063392713665962,802816.0,803.8242900371552,0.004574198741465807,0.0555419921875,2.5271105766296387,-0.02299494855105877,0.030284995213150978,-0.025271102786064148,0.002276157960295677,0.0,0.025674261152744293,0.2500084340572357,0.7057759222008724,0.2804695665836334,0.40287506580352783,0.3061438202857971,0.4609094560146332,4.546082973480225,2.785327672958374,,,,,,
8512512000.0,83.36,1.0800000429153442,6529777152.0,3510.398497423577,49.0,0.00792159978300333,819200.0,808.4915664196014,0.004431066568940878,0.04669189453125,2.5355019569396973,-0.025690607726573944,0.03663388639688492,-0.02535502053797245,-0.00033558602444827557,0.0,0.03671565279364586,0.27337175607681274,0.6376477308328795,0.2966727614402771,0.35426342487335205,0.33338838815689087,0.45413824915885925,4.667276382446289,2.7813925743103027,,,,,,
8512512000.0,89.09,1.2799999713897705,6529777152.0,3518.542416116276,50.0,0.008298883214592934,835584.0,813.1480400562286,0.004376688506454229,0.0513916015625,2.53694486618042,-0.024788379669189453,0.03157896548509598,-0.025369448587298393,0.0005810707807540894,0.0,0.03660426288843155,0.25251486897468567,0.677005499601343,0.3529779314994812,0.35857442021369934,0.38958215713500977,0.4443134069442749,4.656473636627197,2.802244186401367,,,,,,
8512512000.0,90.35,1.4700000286102295,6529777152.0,3582.8534514710745,51.0,0.010087847709655762,851968.0,817.7209315299988,0.008042979054152966,0.08966064453125,2.523801565170288,-0.023402703925967216,0.0853385329246521,-0.02523801475763321,0.001835305243730545,0.0,0.056324396282434464,0.386074960231781,0.5189131866862615,0.37912458181381226,0.39170604944229126,0.4354490041732788,0.5566213726997375,4.572891473770142,2.778860092163086,,,,,,
8512512000.0,93.87,1.8200000524520874,6529777152.0,3538.537824873278,52.0,0.010365272872149944,868352.0,822.3510925769806,0.006378885358572006,0.07275390625,2.5140011310577393,-0.02342289499938488,0.06097307428717613,-0.025140007957816124,0.0017171148210763931,0.0,0.07037194073200226,0.33858340978622437,0.5471079307123274,0.3523484170436859,0.34383711218833923,0.422720342874527,0.5031161904335022,4.6301610469818115,2.7837722301483154,,,,,,
8512512000.0,96.34,1.840000033378601,6529777152.0,3592.6383778047702,53.0,0.010480513796210289,884736.0,826.911529302597,0.005927949212491512,0.06121826171875,2.5166919231414795,-0.02408124879002571,0.02624508924782276,-0.025166919454932213,0.001085666473954916,0.0,0.07600218802690506,0.23075763881206512,0.7083025295186156,0.30982738733291626,0.32392507791519165,0.3858296275138855,0.42725759744644165,4.560436725616455,2.7805535793304443,,,,,,
8512512000.0,100.51,2.049999952316284,6529777152.0,3531.837622426106,54.0,0.012116480618715286,901120.0,831.5504741668701,0.00796858873218298,0.0994873046875,2.4800949096679688,-0.022608665749430656,0.028620684519410133,-0.024800948798656464,0.0021922867745161057,0.0,0.07782308012247086,0.23675525188446045,0.7518501014906742,0.4312647879123688,0.3799428939819336,0.5090879201889038,0.4752724766731262,4.638944864273071,2.7923426628112793,,,,,,
8512512000.0,105.47,2.299999952316284,6529777152.0,3488.8981540125706,55.0,0.012785917147994041,917504.0,836.2465126514435,0.004123469348996878,0.04473876953125,2.476811647415161,-0.023437311872839928,0.035307127982378006,-0.02476811595261097,0.0013308036141097546,0.0,0.07118692994117737,0.2597898244857788,0.7736235912363701,0.5194402933120728,0.4507972300052643,0.5906271934509277,0.5460174083709717,4.696038484573364,2.7895052433013916,,,,,,
8512512000.0,112.77,2.5399999618530273,6529777152.0,3554.291766853856,56.0,0.012025006115436554,933888.0,840.8561511039734,0.012471484951674938,0.13037109375,2.4450597763061523,-0.01899513229727745,0.04265176132321358,-0.024450596421957016,0.005455465987324715,0.0,0.07593217492103577,0.28761327266693115,0.7330640155250485,0.5398041605949402,0.45645102858543396,0.6157363653182983,0.5566796660423279,4.609638452529907,2.7919600009918213,,,,,,
8512512000.0,128.03,2.369999885559082,6529777152.0,3533.0534907446095,57.0,0.01087133027613163,950272.0,845.4934995174408,0.00588635727763176,0.0638427734375,2.4548795223236084,-0.022025708109140396,0.058510735630989075,-0.024548795074224472,0.002523086965084076,0.0,0.06466543674468994,0.34285977482795715,0.6814029415461473,0.5789884328842163,0.4700583517551422,0.6436538100242615,0.6074291467666626,4.637348413467407,2.8535242080688477,,,,,,
8512512000.0,130.78,2.75,6529777152.0,3519.946561968972,58.0,0.012725532054901123,966656.0,850.1481156349182,0.007517693564295769,0.09149169921875,2.466871976852417,-0.020845022052526474,0.1101682037115097,-0.02466871775686741,0.0038236919790506363,0.0,0.0942005068063736,0.45123112201690674,0.6081890844692182,0.5863645076751709,0.471327006816864,0.6805649995803833,0.7208763360977173,4.654616117477417,2.802806854248047,,,,,,
8512512000.0,119.01,2.5,6529777152.0,3530.0895544101286,59.0,0.011194703169167042,983040.0,854.7893576622009,0.005637353286147118,0.0667724609375,2.4443471431732178,-0.021756291389465332,0.08368303626775742,-0.02444346994161606,0.0026871785521507263,0.0,0.06640954315662384,0.3704584240913391,0.6610274481786877,0.6182365417480469,0.466044545173645,0.6846460103988647,0.6362929940223694,4.641242027282715,2.78086256980896,,,,,,
8512512000.0,126.7,2.950000047683716,6529777152.0,3535.128899744483,60.0,0.01348030474036932,999424.0,859.4239835739136,0.005673014093190432,0.06207275390625,2.4354944229125977,-0.022411588579416275,0.05625778064131737,-0.024354945868253708,0.0019433572888374329,0.0,0.09801655262708664,0.33429598808288574,0.6925662068583073,0.6405554413795471,0.4659643769264221,0.7385720014572144,0.6029139161109924,4.6346259117126465,2.7864837646484375,,,,,,
8512512000.0,132.32,3.109999895095825,6529777152.0,3431.1366203925704,61.0,0.013941985554993153,1015808.0,864.1990776062012,0.00450637424364686,0.0545654296875,2.4405462741851807,-0.02416037581861019,0.06218334287405014,-0.02440546452999115,0.0002450871979817748,0.0,0.11652950942516327,0.3561129570007324,0.7555030288187853,0.6865718960762024,0.5446732044219971,0.8031014204025269,0.720196545124054,4.775094032287598,2.791820526123047,,,,,,
8512512000.0,151.09,4.230000019073486,6529777152.0,3544.132612632536,62.0,0.015636447817087173,1032192.0,868.8219294548035,0.009911103174090385,0.10577392578125,2.4052109718322754,-0.02130093425512314,0.11745833605527878,-0.024052109569311142,0.002751174382865429,0.0,0.14479154348373413,0.437438040971756,0.7780256574461699,0.7913265228271484,0.7615880370140076,0.9361180663108826,0.9284641742706299,4.622851848602295,2.785566568374634,,,,,,
8512644000.0,141.6,3.4800000190734863,6529777152.0,3463.1681918682357,63.0,0.013066612184047699,1048576.0,873.5528576374054,0.012630936689674854,0.14935302734375,2.4013280868530273,-0.017723169177770615,0.07258760184049606,-0.024013279005885124,0.00629010796546936,0.0,0.12326444685459137,0.358896940946579,0.751638076130563,0.6722588539123535,0.5352482199668884,0.7955232858657837,0.7201570868492126,4.730928182601929,2.906144618988037,,,,,,
,,,,,,,,,,,,,,,,,,,,,,,,,,0.017883973196148872,0.13161033391952515,0.11814164370298386,0.017883973196148872,0.13161033391952515,0.11814164370298386
,,,,,,,,,,,,,,,,,,,,,,,,,,0.007843758910894394,0.10006088018417358,0.09674909710884094,0.007843758910894394,0.10006088018417358,0.09674909710884094
,,,,,,,,,,,,,,,,,,,,,,,,,,0.0060854218900203705,0.09269486367702484,0.0923292264342308,0.0060854218900203705,0.09269486367702484,0.0923292264342308
,,,,,,,,,,,,,,,,,,,,,,,,,,0.005866161547601223,0.09096936881542206,0.09000556915998459,0.005866161547601223,0.09096936881542206,0.09000556915998459
,,,,,,,,,,,,,,,,,,,,,,,,,,0.005869513843208551,0.08918415755033493,0.0889773964881897,0.005869513843208551,0.08918415755033493,0.0889773964881897
,,,,,,,,,,,,,,,,,,,,,,,,,,0.005233498755842447,0.08730079978704453,0.08744971454143524,0.005233498755842447,0.08730079978704453,0.08744971454143524
8513172000.0,162.3,4.409999847412109,6327188480.0,28.060921627979685,64.0,0.014378558844327927,1064960.0,1457.425341129303,0.004364661872386932,0.05419921875,2.4103779792785645,-0.021662337705492973,0.09090065211057663,-0.02410377748310566,0.0024414360523223877,0.0,0.1695784330368042,0.43088820576667786,0.7691699953788734,0.5511541962623596,0.6795749068260193,0.720732569694519,0.8968473076820374,583.8724834918976,2.779334306716919,,,,,,
8513172000.0,138.82,3.2100000381469727,6529777152.0,3481.2137763701294,65.0,0.014302102848887444,1081344.0,1462.1317455768585,0.00334275234490633,0.037109375,2.4159903526306152,-0.023475948721170425,0.09432022273540497,-0.024159906432032585,0.0006839577108621597,0.0,0.14858117699623108,0.41836878657341003,0.7715691736607845,0.7656289339065552,0.7428303956985474,0.9142100811004639,0.8753503561019897,4.706404447555542,2.7789876461029053,,,,,,
8513172000.0,141.3,3.5,6529777152.0,3592.954698414853,66.0,0.014219088479876518,1097728.0,1466.6917808055878,0.005776133853942156,0.06353759765625,2.3949759006500244,-0.02050001360476017,0.0807357057929039,-0.02394975908100605,0.0034497445449233055,0.0,0.13587923347949982,0.389621764421463,0.8332405752879481,0.8997046947479248,0.7676790356636047,1.0355839729309082,0.9541090130805969,4.560035228729248,2.7808899879455566,,,,,,
8513172000.0,154.66,4.670000076293945,6529777152.0,3450.9880505113597,67.0,0.016177568584680557,1114112.0,1471.439406633377,0.0032625056337565184,0.03350830078125,2.3816945552825928,-0.021872252225875854,0.1229303777217865,-0.023816943168640137,0.0019446909427642822,0.0,0.1262907236814499,0.5126164555549622,0.8250957377578424,1.18617582321167,1.0433335304260254,1.3124663829803467,1.2257229089736938,4.747625827789307,2.7713658809661865,,,,,,
8513172000.0,157.79,4.139999866485596,6529777152.0,3519.546164382495,68.0,0.014666079543530941,1130496.0,1476.0945522785187,0.0029010986909270287,0.02862548828125,2.3860433101654053,-0.024004284292459488,0.11314895749092102,-0.02386043593287468,-0.00014385022222995758,0.0,0.09691198170185089,0.48226508498191833,0.8200005031999119,1.355950117111206,1.0354629755020142,1.4528621435165405,1.1367113590240479,4.655145645141602,2.771298408508301,,,,,,
8513172000.0,211.11,7.429999828338623,6529777152.0,3526.2927736104853,69.0,0.02010461501777172,1146880.0,1480.7407915592194,0.0035025239922106266,0.03436279296875,2.387420177459717,-0.022957580164074898,0.21220560371875763,-0.023874202743172646,0.0009166204836219549,0.0,0.21481068432331085,0.6406955718994141,0.8580915788221031,1.5384520292282104,1.4304389953613281,1.7532627582550049,1.7007781267166138,4.646239280700684,2.772488594055176,,,,,,
8513172000.0,192.46,6.440000057220459,6529777152.0,3564.355691173614,70.0,0.015857534483075142,1163264.0,1485.337414741516,0.004177554044872522,0.04583740234375,2.379340648651123,-0.022682303562760353,0.15541678667068481,-0.023793406784534454,0.0011111001949757338,0.0,0.14727789163589478,0.5109922885894775,0.8504851817843383,1.3474743366241455,1.157024621963501,1.4947521686553955,1.3215152025222778,4.596623182296753,2.76979398727417,,,,,,
8513172000.0,200.39,6.139999866485596,6529777152.0,3607.2307225854674,71.0,0.017662908881902695,1179648.0,1489.8794031143188,0.005418562795966864,0.0625,2.373666763305664,-0.021988078951835632,0.253532350063324,-0.02373666688799858,0.001748585607856512,0.0,0.13641975820064545,0.7134568691253662,0.8300002374313431,2.015763282775879,1.6053816080093384,2.1521828174591064,1.7303881645202637,4.541988372802734,2.778531312942505,,,,,,
8513172000.0,216.65,8.420000076293945,6529777152.0,3577.807052894365,72.0,0.022338993847370148,1196032.0,1494.4587445259094,0.005170863587409258,0.0595703125,2.3493549823760986,-0.022113202139735222,0.21442854404449463,-0.02349354885518551,0.0013803448528051376,0.0,0.2078230381011963,0.671168327331543,0.8756979164447957,2.1619129180908203,1.6779983043670654,2.3697357177734375,1.903672695159912,4.579341411590576,2.7763736248016357,,,,,,
8513172000.0,202.71,7.800000190734863,6529777152.0,3587.2102627568006,73.0,0.02067650854587555,1212416.0,1499.0260820388794,0.0065647996962070465,0.07879638671875,2.359267473220825,-0.020272333174943924,0.25207212567329407,-0.023592673242092133,0.0033203400671482086,0.0,0.13599693775177002,0.680220901966095,0.8755219368981348,2.294557809829712,1.7503743171691895,2.4305548667907715,1.9279848337173462,4.567337512969971,2.775665283203125,,,,,,
8513172000.0,222.11,8.529999732971191,6529777152.0,3497.1044465115788,74.0,0.020192809402942657,1228800.0,1503.7111008167267,0.009228827431797981,0.10113525390625,2.355928897857666,-0.01936769299209118,0.27749326825141907,-0.023559289053082466,0.004191593267023563,0.0,0.14421100914478302,0.7235098481178284,0.8537296117868426,2.489119291305542,1.7663335800170898,2.6333303451538086,1.8917607069015503,4.68501877784729,2.778639078140259,,,,,,
8513172000.0,236.7,8.640000343322754,6529777152.0,3591.4040581920594,75.0,0.021428214386105537,1245184.0,1508.2731049060822,0.007840665057301521,0.09326171875,2.3890023231506348,-0.019200433045625687,0.2456093430519104,-0.023890025913715363,0.0046895891427993774,0.0,0.2085035741329193,0.7181879281997681,0.8672667175409708,2.3770058155059814,1.7274460792541504,2.585509777069092,1.9712797403335571,4.562004089355469,2.781393527984619,,,,,,
8513172000.0,219.64,9.140000343322754,6529777152.0,3585.7768356635147,76.0,0.022179994732141495,1261568.0,1512.8422682285309,0.015270795673131943,0.14501953125,2.3497445583343506,-0.018196381628513336,0.25687533617019653,-0.02349744364619255,0.0053010666742920876,0.0,0.19564573466777802,0.6833311319351196,0.899840190951546,2.296952247619629,1.9387128353118896,2.492598056793213,2.159158706665039,4.5691633224487305,2.7787859439849854,,,,,,
8513172000.0,207.47,7.900000095367432,6529777152.0,3536.46041442259,77.0,0.02073655091226101,1277952.0,1517.475149154663,0.004481474868953228,0.053955078125,2.376051902770996,-0.022144462913274765,0.2205299586057663,-0.023760516196489334,0.001616053283214569,0.0,0.15692497789859772,0.6190310716629028,0.8625967804097311,1.9491406679153442,1.4531221389770508,2.1060657501220703,1.6699904203414917,4.632880926132202,2.7804293632507324,,,,,,
8513172000.0,219.86,8.15999984741211,6529777152.0,3647.376895899398,78.0,0.01963743381202221,1294336.0,1521.9671444892883,0.00247026514261961,0.02398681640625,2.344348430633545,-0.02355407364666462,0.26154109835624695,-0.02344348654150963,-0.00011058617383241653,0.0,0.1513146311044693,0.7279304265975952,0.876434187336864,2.611541748046875,1.8408225774765015,2.7628564834594727,2.070812225341797,4.491995334625244,2.7673070430755615,,,,,,
8513172000.0,247.27,10.210000038146973,6529777152.0,3599.99500942177,79.0,0.0227326899766922,1310720.0,1526.5182619094849,0.0043621063232421875,0.04791259765625,2.3381402492523193,-0.02001871168613434,0.281475692987442,-0.023381400853395462,0.003362691029906273,0.0,0.1982678323984146,0.7119178175926208,0.8969584729817246,2.8282604217529297,2.0064265727996826,3.0265283584594727,2.2178070545196533,4.551117420196533,2.7722926139831543,,,,,,
8513172000.0,227.81,10.039999961853027,6529777152.0,3395.8305354991767,80.0,0.021624527871608734,1327104.0,1531.3430020809174,0.00921038631349802,0.097900390625,2.2888689041137695,-0.01914244145154953,0.22079022228717804,-0.02288868837058544,0.0037462483160197735,0.0,0.12547209858894348,0.6553792953491211,0.8989106166879905,2.6790270805358887,1.9370695352554321,2.8044991493225098,2.061293840408325,4.824740171432495,2.781208038330078,,,,,,
8513172000.0,239.11,9.460000038146973,6529777152.0,3549.33626524239,81.0,0.020847387611865997,1343488.0,1535.9590764045715,0.005934355314821005,0.06597900390625,2.2640137672424316,-0.02094319649040699,0.26433035731315613,-0.022640137001872063,0.0016969426069408655,0.0,0.17220830917358398,0.7108345627784729,0.8913528247041276,2.886911153793335,1.9748029708862305,3.059119462966919,2.1565489768981934,4.616074323654175,2.769559621810913,,,,,,
8513172000.0,274.95,12.229999542236328,6529777152.0,3583.4328137733355,82.0,0.02593952789902687,1359872.0,1540.5312285423279,0.0054483795538544655,0.0599365234375,2.29095458984375,-0.02099672332406044,0.3536500930786133,-0.02290954440832138,0.0019128229469060898,0.0,0.2204359918832779,0.809525191783905,0.8943855693043058,3.5690526962280273,2.391650676727295,3.7894883155822754,2.4909708499908447,4.572152137756348,2.7723448276519775,,,,,,
8513172000.0,265.73,12.430000305175781,6529777152.0,3594.9325887985715,83.0,0.021126559004187584,1376256.0,1545.0887548923492,0.00424586609005928,0.04510498046875,2.297196865081787,-0.021176956593990326,0.29655900597572327,-0.02297196537256241,0.001795007847249508,0.0,0.1142442375421524,0.7371001839637756,0.8780039185735204,3.4384260177612305,1.9085530042648315,3.552670478820801,2.1103460788726807,4.557526350021362,2.775965929031372,,,,,,
8513172000.0,259.29,11.619999885559082,6529777152.0,3588.445073761593,84.0,0.026145897805690765,1392640.0,1549.6545207500458,0.002891469281166792,0.02935791015625,2.3004517555236816,-0.02146601676940918,0.3213942050933838,-0.02300451509654522,0.0015384973958134651,0.0,0.17732690274715424,0.7625528573989868,0.9025458262064638,3.549669027328491,2.2367231845855713,3.7269959449768066,2.442697048187256,4.565765857696533,2.7728359699249268,,,,,,
8513172000.0,273.5,12.210000038146973,6529777152.0,3598.301493254128,85.0,0.019654883071780205,1409024.0,1554.207780122757,0.0042199199087917805,0.04534912109375,2.2709035873413086,-0.021215159446001053,0.31609323620796204,-0.022709038108587265,0.0014938721433281898,0.0,0.146392822265625,0.7373970746994019,0.8998542751201013,3.753100872039795,2.266188383102417,3.89949369430542,2.330157518386841,4.553259372711182,2.7868459224700928,,,,,,
8513172000.0,294.17,13.25,6529777152.0,3517.3073484644215,86.0,0.026311980560421944,1425408.0,1558.8658888339996,0.0037870239466428757,0.04083251953125,2.286694049835205,-0.02163463830947876,0.3627978563308716,-0.02286693826317787,0.0012323018163442612,0.0,0.16113118827342987,0.8231589198112488,0.88301567225116,3.9996752738952637,2.303025722503662,4.160806655883789,2.4066884517669678,4.658108711242676,2.7741661071777344,,,,,,
8513172000.0,284.01,12.399999618530273,6529777152.0,3612.3405861750593,87.0,0.02143361046910286,1441792.0,1563.4014523029327,0.004744349978864193,0.0465087890625,2.2608861923217773,-0.020630603656172752,0.2719717025756836,-0.022608861327171326,0.001978255808353424,0.0,0.08617104589939117,0.7370359301567078,0.8977038937084334,4.0716447830200195,2.150468349456787,4.157815933227539,2.3044071197509766,4.5355634689331055,2.780574321746826,,,,,,
8513172000.0,282.43,11.760000228881836,6529777152.0,3469.3964408830693,88.0,0.021084414795041084,1458176.0,1568.12388753891,0.0036620020400732756,0.0364990234375,2.261796712875366,-0.020456736907362938,0.3120715618133545,-0.022617965936660767,0.002161229494959116,0.0,0.11246902495622635,0.7892866134643555,0.8835048433264996,3.868997097015381,2.2362730503082275,3.981466054916382,2.312494993209839,4.722435235977173,2.778264284133911,,,,,,
8513172000.0,295.41,13.529999732971191,6529777152.0,3441.788911255011,89.0,0.025094104930758476,1474560.0,1572.8842027187347,0.0101298987865448,0.10943603515625,2.2802865505218506,-0.015818439424037933,0.29302555322647095,-0.022802863270044327,0.00698442105203867,0.0,0.18232449889183044,0.7608611583709717,0.896396733736883,3.8489203453063965,2.154360055923462,4.03124475479126,2.3638434410095215,4.760315179824829,2.8911826610565186,,,,,,
8513172000.0,311.13,15.100000381469727,6529777152.0,3454.9868019203077,90.0,0.025231895968317986,1490944.0,1577.6263337135315,0.008797026239335537,0.09869384765625,2.2769112586975098,-0.01893133670091629,0.32108306884765625,-0.02276911400258541,0.0038377754390239716,0.0,0.23858638107776642,0.802619993686676,0.8599678648960117,4.114274501800537,2.024383783340454,4.352860927581787,2.144845724105835,4.742130994796753,2.8535804748535156,,,,,,
8513172000.0,325.06,16.010000228881836,6529777152.0,3536.3461257031386,91.0,0.029926704242825508,1507328.0,1582.2593643665314,0.002796763787046075,0.02655029296875,2.306032180786133,-0.022200241684913635,0.34081152081489563,-0.023060321807861328,0.0008600817527621984,0.0,0.18995575606822968,0.8153532147407532,0.8938866093585685,4.789628028869629,2.401583433151245,4.979583740234375,2.5029993057250977,4.633030652999878,2.7732696533203125,,,,,,
8513172000.0,314.25,15.869999885559082,6529777152.0,3536.607471922432,92.0,0.024531370028853416,1523712.0,1586.8920526504517,0.002288088435307145,0.01690673828125,2.2838845252990723,-0.02285528928041458,0.28662118315696716,-0.02283884771168232,-1.6441568732261658e-05,0.0,0.08865226060152054,0.7812784314155579,0.8980237503465148,4.721896648406982,2.351654291152954,4.810548782348633,2.446561813354492,4.632688283920288,2.7867746353149414,,,,,,
8513172000.0,304.07,14.930000305175781,6529777152.0,3574.7201655286985,93.0,0.026174068450927734,1540096.0,1591.4753484725952,0.004126580432057381,0.0462646484375,2.2643344402313232,-0.021924316883087158,0.3321256637573242,-0.02264334261417389,0.0007190294563770294,0.0,0.1616380363702774,0.7885835766792297,0.8917728558830287,4.902480125427246,2.2576844692230225,5.064117431640625,2.397063732147217,4.583295822143555,2.7750561237335205,,,,,,
8513172000.0,314.37,15.869999885559082,6529777152.0,3593.7399176184285,94.0,0.02756226621568203,1556480.0,1596.0343873500824,0.0039019007235765457,0.0399169921875,2.2772867679595947,-0.02128400094807148,0.5273407101631165,-0.02277286723256111,0.0014888669829815626,0.0,0.15379253029823303,0.8956484198570251,0.861219404768153,5.503978729248047,2.3581838607788086,5.657771110534668,2.4042134284973145,4.559038877487183,2.7812039852142334,,,,,,
8513396000.0,321.94,17.209999084472656,6529777152.0,3440.37838122256,95.0,0.028445830568671227,1572864.0,1600.7966542243958,0.0069009908474981785,0.071533203125,2.2422800064086914,-0.018722979351878166,0.42842209339141846,-0.022422801703214645,0.0036998202558606863,0.0,0.12828315794467926,0.7764942646026611,0.8883494313478822,5.732765197753906,2.243079662322998,5.861047744750977,2.323848247528076,4.7622668743133545,2.904007911682129,,,,,,
,,,,,,,,,,,,,,,,,,,,,,,,,,0.0724487379193306,1.3861355781555176,1.208644986152649,0.0724487379193306,1.3861355781555176,1.208644986152649
,,,,,,,,,,,,,,,,,,,,,,,,,,0.03743277117609978,1.014609456062317,0.9775320291519165,0.03743277117609978,1.014609456062317,0.9775320291519165
,,,,,,,,,,,,,,,,,,,,,,,,,,0.031685441732406616,0.9532954096794128,0.937958300113678,0.031685441732406616,0.9532954096794128,0.937958300113678
,,,,,,,,,,,,,,,,,,,,,,,,,,0.025802839547395706,0.8731241822242737,0.8718861937522888,0.025802839547395706,0.8731241822242737,0.8718861937522888
,,,,,,,,,,,,,,,,,,,,,,,,,,0.025286054238677025,0.8777449131011963,0.876789927482605,0.025286054238677025,0.8777449131011963,0.876789927482605
,,,,,,,,,,,,,,,,,,,,,,,,,,0.022641895338892937,0.8582442402839661,0.8566750884056091,0.022641895338892937,0.8582442402839661,0.8566750884056091
8513396000.0,326.78,17.0,6327188480.0,28.207819188124418,96.0,0.02536689303815365,1589248.0,2181.6285111904144,0.005991080775856972,0.06475830078125,2.3110861778259277,-0.02161104790866375,0.2591433525085449,-0.023110859096050262,0.0014998118858784437,0.0,0.21130183339118958,0.701482892036438,0.9115433258445058,3.479436159133911,2.209381580352783,3.6907379627227783,2.358586549758911,580.8318569660187,2.768199920654297,,,,,,
8513396000.0,313.23,14.779999732971191,6529777152.0,3432.8070722758257,97.0,0.023750558495521545,1605632.0,2186.40128159523,0.004898690152913332,0.05517578125,2.298358201980591,-0.021031947806477547,0.3042146563529968,-0.022983580827713013,0.001951633021235466,0.0,0.20998582243919373,0.7934468388557434,0.8943214127333006,4.03394889831543,2.3537240028381348,4.243934631347656,2.44075608253479,4.772770404815674,2.7626986503601074,,,,,,
8513396000.0,327.59,16.729999542236328,6529777152.0,3419.3532156569954,98.0,0.029264111071825027,1622016.0,2191.1928310394287,0.0036268814001232386,0.04296875,2.282960891723633,-0.023354873061180115,0.30123013257980347,-0.022829607129096985,-0.000525263138115406,0.0,0.2577940821647644,0.7680948376655579,0.9022979582438492,4.41641092300415,2.384773015975952,4.6742048263549805,2.457326889038086,4.791549444198608,2.7696938514709473,,,,,,
8513396000.0,341.45,17.56999969482422,6529777152.0,3447.4953663142223,99.0,0.023313168436288834,1638400.0,2195.945266723633,0.006036152597516775,0.07183837890625,2.2808778285980225,-0.02163175493478775,0.3154878616333008,-0.022808777168393135,0.0011770203709602356,0.0,0.20632368326187134,0.782949686050415,0.8898407738857538,4.438429832458496,2.2930667400360107,4.644753932952881,2.3589751720428467,4.752435684204102,2.7579963207244873,,,,,,
8513396000.0,353.09,17.110000610351562,6529777152.0,3524.6521462407363,100.0,0.027430769056081772,1654784.0,2200.5936686992645,0.005516642704606056,0.065185546875,2.29174542427063,-0.021948503330349922,0.32447606325149536,-0.022917455062270164,0.0009689498692750931,0.0,0.21481209993362427,0.8012483716011047,0.8732800346043909,4.986699104309082,2.1865005493164062,5.201511383056641,2.2508397102355957,4.648401975631714,2.745755910873413,,,,,,
8513396000.0,359.62,17.6299991607666,6529777152.0,3506.6673744010823,101.0,0.02453640103340149,1671168.0,2205.265911102295,0.0039420174434781075,0.04449462890625,2.2874460220336914,-0.02296898514032364,0.35140758752822876,-0.022874459624290466,-9.453296661376953e-05,0.0,0.15199008584022522,0.8202558159828186,0.875499945374599,5.292631149291992,2.235241651535034,5.444621562957764,2.32468843460083,4.6722424030303955,2.7554330825805664,,,,,,
8513396000.0,365.43,17.690000534057617,6529777152.0,3519.0982813488267,102.0,0.022905457764863968,1687552.0,2209.9216492176056,0.003539254190400243,0.03436279296875,2.2979536056518555,-0.018823465332388878,0.28436774015426636,-0.022979531437158585,0.004156069830060005,0.0,0.15365484356880188,0.7511125802993774,0.8956984634164297,5.266618728637695,2.226025104522705,5.420273780822754,2.3257315158843994,4.655738115310669,2.7610859870910645,,,,,,
8513396000.0,366.51,18.260000228881836,6529777152.0,3482.257037422944,103.0,0.03052281215786934,1703936.0,2214.6266436576843,0.004302512854337692,0.0438232421875,2.2732126712799072,-0.020619936287403107,0.3297024667263031,-0.022732127457857132,0.002112190704792738,0.0,0.18588584661483765,0.8140963315963745,0.8685989736520437,5.563185214996338,2.1967077255249023,5.74907112121582,2.2458279132843018,4.704994440078735,2.761000633239746,,,,,,
8513396000.0,358.66,17.920000076293945,6529777152.0,3538.891526278066,104.0,0.025101272389292717,1720320.0,2219.256341934204,0.003786305896937847,0.0396728515625,2.305509567260742,-0.020279670134186745,0.2920241355895996,-0.023055095225572586,0.002775426022708416,0.0,0.1657027155160904,0.7618625164031982,0.8833937604867343,5.524056434631348,2.141449451446533,5.68975830078125,2.231081962585449,4.629698276519775,2.7632076740264893,,,,,,
8513396000.0,344.46,17.760000228881836,6529777152.0,3547.643544806403,105.0,0.02628987841308117,1736704.0,2223.874618768692,0.004170600790530443,0.05029296875,2.3053479194641113,-0.022140320390462875,0.28058961033821106,-0.023053480312228203,0.0009131587576121092,0.0,0.17984578013420105,0.7228513360023499,0.8954414149175625,5.597527503967285,2.140835762023926,5.77737283706665,2.235471248626709,4.618276834487915,2.7629740238189697,,,,,,
8513396000.0,350.8,18.59000015258789,6529777152.0,3586.5712746960303,106.0,0.031041016802191734,1753088.0,2228.4427700042725,0.0029556336812675,0.02783203125,2.2822322845458984,-0.02101590670645237,0.23952695727348328,-0.022822320461273193,0.001806415617465973,0.0,0.18021242320537567,0.6952569484710693,0.8857355922322742,5.762337684631348,2.0216939449310303,5.942549705505371,2.056788444519043,4.568151235580444,2.7574472427368164,,,,,,
8513396000.0,358.13,19.610000610351562,6529777152.0,3455.1709392972825,107.0,0.028352875262498856,1769472.0,2233.1846482753754,0.002921823412179947,0.03253173828125,2.2746453285217285,-0.022086702287197113,0.23677772283554077,-0.022746453061699867,0.000659748911857605,0.0,0.13735461235046387,0.6815162301063538,0.9063671408313196,6.070971488952637,2.143744468688965,6.20832633972168,2.2272157669067383,4.741878271102905,2.762195110321045,,,,,,
8513396000.0,368.67,19.84000015258789,6529777152.0,3521.621791748396,108.0,0.025844061747193336,1785856.0,2237.8370501995087,0.003425496630370617,0.03662109375,2.2642922401428223,-0.02280934527516365,0.2054630070924759,-0.022642921656370163,-0.00016642175614833832,0.0,0.13674648106098175,0.6415756940841675,0.9193317653804352,5.779841423034668,2.140007972717285,5.9165873527526855,2.258897542953491,4.652401924133301,2.754955530166626,,,,,,
8513396000.0,369.0,19.280000686645508,6529777152.0,3565.0916524496834,109.0,0.02998141199350357,1802240.0,2242.4327244758606,0.00467314338311553,0.0487060546875,2.249561309814453,-0.021570920944213867,0.24005424976348877,-0.022495612502098083,0.0009246896952390671,0.0,0.17313553392887115,0.6983902454376221,0.8959211718276825,5.906033515930176,2.1002326011657715,6.079168796539307,2.1647961139678955,4.595674276351929,2.762098789215088,,,,,,
8513396000.0,353.29,17.809999465942383,6529777152.0,3528.748516933552,110.0,0.02499307692050934,1818624.0,2247.0757303237915,0.00638450775295496,0.070068359375,2.266186237335205,-0.020731747150421143,0.2743642032146454,-0.022661862894892693,0.0019301138818264008,0.0,0.10015952587127686,0.7312914729118347,0.866382457800764,6.111573219299316,1.8675392866134644,6.211732864379883,2.000593423843384,4.643005847930908,2.755916118621826,,,,,,
8513396000.0,367.56,19.34000015258789,6529777152.0,3474.2029235094205,111.0,0.030968500301241875,1835008.0,2251.7916321754456,0.00317740929313004,0.03460693359375,2.2634313106536865,-0.021567411720752716,0.20825466513633728,-0.022634314373135567,0.0010669026523828506,0.0,0.17661480605602264,0.6490082144737244,0.8971253359871225,6.605654716491699,2.0110950469970703,6.782269477844238,2.023465156555176,4.715901851654053,2.7636499404907227,,,,,,
8513396000.0,391.24,21.850000381469727,6529777152.0,3456.319635148282,112.0,0.02749335765838623,1851392.0,2256.5319344997406,0.004579316359013319,0.05230712890625,2.263291358947754,-0.020786406472325325,0.23861807584762573,-0.022632915526628494,0.0018465088214725256,0.0,0.16734236478805542,0.6705541014671326,0.8816216666178328,6.414184093475342,1.9490976333618164,6.581526756286621,1.948937177658081,4.740302324295044,2.7649331092834473,,,,,,
8513396000.0,393.8,22.139999389648438,6529777152.0,3571.7384735712208,113.0,0.02812637761235237,1867776.0,2261.1190564632416,0.004186672158539295,0.04095458984375,2.253044605255127,-0.021428056061267853,0.22722315788269043,-0.02253044582903385,0.0011023948900401592,0.0,0.16153603792190552,0.6741719245910645,0.8751906062469315,6.559356689453125,1.8421157598495483,6.720892906188965,1.9083019495010376,4.587121963500977,2.7668840885162354,,,,,,
8513396000.0,398.94,21.889999389648438,6529777152.0,3442.3269955029,114.0,0.029999881982803345,1884160.0,2265.878627538681,0.004031152930110693,0.041259765625,2.233961582183838,-0.020210163667798042,0.1842760145664215,-0.02233961969614029,0.002129455329850316,0.0,0.16718685626983643,0.6018787026405334,0.8866181626123101,6.631817817687988,1.737794280052185,6.799004077911377,1.7874616384506226,4.759571075439453,2.754809617996216,,,,,,
8513396000.0,401.0,22.6299991607666,6529777152.0,3444.4563271741154,115.0,0.030505191534757614,1900544.0,2270.635256290436,0.004602526780217886,0.0389404296875,2.234165668487549,-0.020773930475115776,0.24795804917812347,-0.022341657429933548,0.0015677225310355425,0.0,0.16763198375701904,0.6913621425628662,0.8448607881838589,6.658542156219482,1.6855287551879883,6.826174259185791,1.7552728652954102,4.756628751754761,2.7657203674316406,,,,,,
8513396000.0,398.2,21.979999542236328,6529777152.0,3501.9536196548747,116.0,0.028561856597661972,1916928.0,2275.3137876987457,0.004744003526866436,0.0533447265625,2.237920045852661,-0.021147824823856354,0.18769045174121857,-0.022379200905561447,0.0012313742190599442,0.0,0.14122194051742554,0.5996875762939453,0.883731124934863,6.537484169006348,1.7118171453475952,6.678706169128418,1.758705973625183,4.6785314083099365,2.758333444595337,,,,,,
8513396000.0,394.27,21.760000228881836,6529777152.0,3506.715510128933,117.0,0.027844395488500595,1933312.0,2279.9859659671783,0.0061648995615541935,0.0609130859375,2.2169740200042725,-0.018349718302488327,0.16300585865974426,-0.02216973900794983,0.003820023499429226,0.0,0.13741259276866913,0.5637883543968201,0.897847727473736,6.493889808654785,1.649553656578064,6.631302833557129,1.7639744281768799,4.672178268432617,2.763633966445923,,,,,,
8513396000.0,390.18,21.969999313354492,6529777152.0,3519.3192347470895,118.0,0.030010471120476723,1949696.0,2284.641411781311,0.01024589966982603,0.0872802734375,2.1789140701293945,-0.016928555443882942,0.19496577978134155,-0.02178914099931717,0.004860586486756802,0.0,0.1629553735256195,0.6327208876609802,0.8944341598399299,6.594043731689453,1.8174819946289062,6.7569990158081055,1.9473791122436523,4.65544581413269,2.768970489501953,,,,,,
8513396000.0,382.3,21.270000457763672,6529777152.0,3573.7510529566644,119.0,0.028940554708242416,1966080.0,2289.2259504795074,0.004571323748677969,0.04718017578125,2.1745312213897705,-0.020060205832123756,0.20113877952098846,-0.021745311096310616,0.0016851052641868591,0.0,0.09547194093465805,0.6259201169013977,0.9047312234030774,6.289074897766113,1.904356837272644,6.384546279907227,2.0278849601745605,4.584538698196411,2.7633728981018066,,,,,,
8513396000.0,391.51,22.079999923706055,6529777152.0,3613.0047466263863,120.0,0.02981741726398468,1982464.0,2293.7606801986694,0.0037036961875855923,0.0323486328125,2.1384081840515137,-0.020211180672049522,0.17865726351737976,-0.02138408087193966,0.0011729003163054585,0.0,0.17946119606494904,0.5825347304344177,0.9122102709945589,6.740262031555176,1.9054619073867798,6.919723033905029,1.9660744667053223,4.534729719161987,2.785738468170166,,,,,,
8513396000.0,391.18,22.43000030517578,6529777152.0,3561.910710947138,121.0,0.02772609516978264,1998848.0,2298.360458612442,0.002653934061527252,0.02850341796875,2.16902232170105,-0.021044906228780746,0.1837746798992157,-0.02169022150337696,0.0006453180685639381,0.0,0.14519961178302765,0.6018251776695251,0.8947375200713751,6.39977502822876,1.7726956605911255,6.544974327087402,1.8549555540084839,4.599778413772583,2.760632038116455,,,,,,
8513396000.0,394.58,22.040000915527344,6529777152.0,3531.3782580963834,122.0,0.031226027756929398,2015232.0,2303.000006914139,0.0033653932623565197,0.03759765625,2.1449997425079346,-0.01946682669222355,0.1613427847623825,-0.021449996158480644,0.0019831680692732334,0.0,0.1528751701116562,0.5542742609977722,0.9075783427003667,6.657519340515137,1.7702157497406006,6.810394287109375,1.8232141733169556,4.639548301696777,2.7613348960876465,,,,,,
8513396000.0,391.77,22.329999923706055,6529777152.0,3499.8257069452206,123.0,0.02807321958243847,2031616.0,2307.681382894516,0.00359672075137496,0.03643798828125,2.144282817840576,-0.021307140588760376,0.17722630500793457,-0.021442826837301254,0.00013568950816988945,0.0,0.16193407773971558,0.588745653629303,0.9124847977722009,6.49498176574707,1.918381690979004,6.65691614151001,1.9901505708694458,4.681375980377197,2.771552085876465,,,,,,
8513396000.0,393.05,21.850000381469727,6529777152.0,3630.4169731527245,124.0,0.027384664863348007,2048000.0,2312.194363117218,0.00299124326556921,0.025634765625,2.131016254425049,-0.01987919583916664,0.1932365596294403,-0.02131016179919243,0.0014309640973806381,0.0,0.10968796908855438,0.6150997281074524,0.890771286916475,6.4228010177612305,1.7768199443817139,6.53248929977417,1.8611317873001099,4.512980222702026,2.7776875495910645,,,,,,
8513396000.0,398.86,22.229999542236328,6529777152.0,3564.8366204054005,125.0,0.03652043640613556,2064384.0,2316.7903661727905,0.0038306484930217266,0.04205322265625,2.1068530082702637,-0.019971150904893875,0.20460540056228638,-0.021068530157208443,0.0010973773896694183,0.0,0.16876059770584106,0.618272066116333,0.893311158819851,6.97792387008667,1.8654054403305054,7.146684169769287,1.8928669691085815,4.59600305557251,2.7668392658233643,,,,,,
8513396000.0,404.84,22.780000686645508,6529777152.0,3564.4057934691205,126.0,0.024336468428373337,2080768.0,2321.3869247436523,0.004117811098694801,0.0433349609375,2.0874154567718506,-0.01962430030107498,0.14429327845573425,-0.020874153822660446,0.001249854452908039,0.0,0.1644960194826126,0.5327117443084717,0.9050942951175345,6.994210243225098,1.722802996635437,7.158705711364746,1.7292029857635498,4.596558570861816,2.83064866065979,,,,,,
8513432000.0,413.51,24.010000228881836,6529777152.0,3455.264405211073,127.0,0.03207015246152878,2097152.0,2326.1286747455597,0.004738947842270136,0.048095703125,2.091251850128174,-0.01887509971857071,0.15826231241226196,-0.020912516862154007,0.0020374159794300795,0.0,0.14952242374420166,0.5510538816452026,0.9034781058620953,6.922577857971191,1.7457245588302612,7.0721001625061035,1.7737022638320923,4.741750001907349,2.756711959838867,,,,,,
,,,,,,,,,,,,,,,,,,,,,,,,,,0.032448768615722656,0.889480710029602,0.7157502770423889,0.032448768615722656,0.889480710029602,0.7157502770423889
,,,,,,,,,,,,,,,,,,,,,,,,,,0.02058321423828602,0.6807305812835693,0.6521506309509277,0.02058321423828602,0.6807305812835693,0.6521506309509277
,,,,,,,,,,,,,,,,,,,,,,,,,,0.018048621714115143,0.6437410116195679,0.6270014643669128,0.018048621714115143,0.6437410116195679,0.6270014643669128
,,,,,,,,,,,,,,,,,,,,,,,,,,0.0181698277592659,0.6454657912254333,0.6263362169265747,0.0181698277592659,0.6454657912254333,0.6263362169265747
,,,,,,,,,,,,,,,,,,,,,,,,,,0.016600973904132843,0.6120887398719788,0.6040130257606506,0.016600973904132843,0.6120887398719788,0.6040130257606506
,,,,,,,,,,,,,,,,,,,,,,,,,,0.015966737642884254,0.6136775016784668,0.5991799831390381,0.015966737642884254,0.6136775016784668,0.5991799831390381
8513432000.0,412.63,24.68000030517578,6327188480.0,28.128106171592773,128.0,0.03358208388090134,2113536.0,2908.606567144394,0.005932359024882317,0.06158447265625,2.1010451316833496,-0.01719890907406807,0.15968060493469238,-0.021010449156165123,0.0038115414790809155,0.0,0.22932428121566772,0.5562202334403992,0.9311862962112821,6.543838024139404,2.071439027786255,6.773161888122559,2.1203572750091553,582.4778923988342,2.7686238288879395,,,,,,
8513432000.0,411.56,25.270000457763672,6529777152.0,3492.750238298664,129.0,0.03005087375640869,2129920.0,2913.2974264621735,0.005871537607163191,0.0572509765625,2.1326236724853516,-0.01845095120370388,0.15227295458316803,-0.02132623828947544,0.0028752870857715607,0.0,0.22542309761047363,0.5347437262535095,0.9303611719410156,6.657081604003906,2.0177721977233887,6.882504463195801,2.0263748168945312,4.690859317779541,2.779121160507202,,,,,,
8513432000.0,410.59,25.139999389648438,6529777152.0,3473.7004819391727,130.0,0.03597760573029518,2146304.0,2918.0140104293823,0.00635880883783102,0.06646728515625,2.1358461380004883,-0.019465558230876923,0.23765194416046143,-0.021358458325266838,0.0018929000943899155,0.0,0.09695617854595184,0.7050655484199524,0.8883065868155771,7.165399551391602,2.092514991760254,7.262355804443359,2.109675407409668,4.716583967208862,2.759337902069092,,,,,,
8513432000.0,400.41,23.739999771118164,6529777152.0,3534.775950028422,131.0,0.026239540427923203,2162688.0,2922.649099111557,0.00474660936743021,0.052490234375,2.1141321659088135,-0.0203007310628891,0.23001667857170105,-0.02114132046699524,0.0008405847474932671,0.0,0.14979463815689087,0.6715077757835388,0.8877397497582454,7.805570602416992,2.002490758895874,7.955365180969238,2.004188060760498,4.635088682174683,2.7537729740142822,,,,,,
8513432000.0,403.42,24.68000030517578,6529777152.0,3480.5155606617914,132.0,0.03150325268507004,2179072.0,2927.356447696686,0.0049937027506530285,0.0523681640625,2.152505397796631,-0.02028893306851387,0.13892121613025665,-0.021525053307414055,0.0012361183762550354,0.0,0.15863865613937378,0.5223836898803711,0.9273207285332099,7.425932884216309,1.9652442932128906,7.584571838378906,1.9376907348632812,4.707348585128784,2.753048896789551,,,,,,
8513432000.0,409.93,24.649999618530273,6529777152.0,3508.9129076282875,133.0,0.034347474575042725,2195456.0,2932.0257000923157,0.005078148562461138,0.05517578125,2.144357919692993,-0.020177558064460754,0.14840899407863617,-0.021443579345941544,0.00126601941883564,0.0,0.11969602853059769,0.5496532917022705,0.9052796074920842,7.848301887512207,1.8034985065460205,7.9679975509643555,1.7859399318695068,4.669252395629883,2.7403488159179688,,,,,,
8513432000.0,415.54,24.940000534057617,6529777152.0,3501.9373798684155,134.0,0.026173632591962814,2211840.0,2936.7042531967163,0.005481767002493143,0.05316162109375,2.1425068378448486,-0.020339395850896835,0.1363110989332199,-0.021425068378448486,0.0010856743901968002,0.0,0.14264468848705292,0.5141606330871582,0.8906053894970427,7.797923564910889,1.5751456022262573,7.940567970275879,1.5545365810394287,4.678553104400635,2.741001605987549,,,,,,
8513432000.0,416.28,25.75,6529777152.0,3416.4160506556145,135.0,0.03925780951976776,2228224.0,2941.4999220371246,0.006380466744303703,0.06884765625,2.123137950897217,-0.01931050978600979,0.12121757119894028,-0.021231379359960556,0.0019208723679184914,0.0,0.1735813170671463,0.4828730523586273,0.9109242122555453,7.6977033615112305,1.6469347476959229,7.871284484863281,1.6179057359695435,4.795668840408325,2.760876417160034,,,,,,
8513432000.0,409.1,25.649999618530273,6529777152.0,3602.0862033177186,136.0,0.029048053547739983,2244608.0,2946.0483973026276,0.008323959074914455,0.08740234375,2.1127398014068604,-0.016625460237264633,0.16195058822631836,-0.021127399057149887,0.004501938819885254,0.0,0.11052834987640381,0.5567783713340759,0.8863982131629133,7.852195739746094,1.5949923992156982,7.962724685668945,1.651924967765808,4.54847526550293,2.770965814590454,,,,,,
8513432000.0,407.93,25.219999313354492,6529777152.0,3656.4621616070676,137.0,0.02816857397556305,2260992.0,2950.5292313098907,0.007552080787718296,0.07672119140625,2.0928139686584473,-0.017131229862570763,0.13749957084655762,-0.020928138867020607,0.0037969090044498444,0.0,0.09418943524360657,0.5213567614555359,0.8973537441474555,7.6912431716918945,1.6267153024673462,7.785432815551758,1.627285361289978,4.480834007263184,2.7634811401367188,,,,,,
8513432000.0,410.56,24.399999618530273,6529777152.0,3558.8231669344696,138.0,0.03545617684721947,2277376.0,2955.1330003738403,0.007388708647340536,0.07830810546875,2.0900344848632812,-0.017929861322045326,0.17158155143260956,-0.020900344476103783,0.002970481989905238,0.0,0.10414310544729233,0.574198842048645,0.88331430131671,8.007771492004395,1.6450508832931519,8.111913681030273,1.6809417009353638,4.603769063949585,2.7618978023529053,,,,,,
8513432000.0,404.66,24.360000610351562,6529777152.0,3472.739556851408,139.0,0.03076779842376709,2293760.0,2959.850889444351,0.004236331209540367,0.04888916015625,2.104562759399414,-0.02135329134762287,0.14294737577438354,-0.0210456270724535,-0.00030766241252422333,0.0,0.11785075068473816,0.5237700343132019,0.9114531832963216,8.006735801696777,1.701431393623352,8.124587059020996,1.7601698637008667,4.717889070510864,2.763737678527832,,,,,,
8513432000.0,410.4,25.3700008392334,6529777152.0,3529.1365118092162,140.0,0.03008628636598587,2310144.0,2964.4933848381042,0.004198410082608461,0.0413818359375,2.1391634941101074,-0.018368151038885117,0.14192920923233032,-0.02139163389801979,0.003023482859134674,0.0,0.11319398134946823,0.5278036594390869,0.8875886669179455,7.871308326721191,1.5561798810958862,7.984501838684082,1.5742250680923462,4.642495393753052,2.763291597366333,,,,,,
8513432000.0,418.03,26.1299991607666,6529777152.0,3607.2348883160707,141.0,0.032999299466609955,2326528.0,2969.0353679656982,0.005926765501499176,0.0614013671875,2.064838409423828,-0.019032323732972145,0.13335321843624115,-0.020648382604122162,0.0016160598024725914,0.0,0.1283106803894043,0.5153483748435974,0.8650821949843601,8.194482803344727,1.4093241691589355,8.322793960571289,1.4030343294143677,4.541983127593994,2.7590231895446777,,,,,,
8513432000.0,416.35,25.329999923706055,6529777152.0,3590.1784641567688,142.0,0.032660096883773804,2342912.0,2973.5989294052124,0.00436211284250021,0.0391845703125,2.0918121337890625,-0.021783962845802307,0.1198662519454956,-0.020918117836117744,-0.0008658487349748611,0.0,0.12758824229240417,0.48056069016456604,0.8923059907340862,8.092430114746094,1.4559767246246338,8.220017433166504,1.4643735885620117,4.56356143951416,2.7651665210723877,,,,,,
8513432000.0,409.52,25.0,6529777152.0,3480.3685479049386,143.0,0.03566893935203552,2359296.0,2978.306476831436,0.005556891206651926,0.05377197265625,2.0996999740600586,-0.015134030021727085,0.15952365100383759,-0.020996998995542526,0.005862971767783165,0.0,0.07886400818824768,0.5586756467819214,0.856689900165899,8.247026443481445,1.400564193725586,8.325891494750977,1.4757803678512573,4.707547426223755,2.869621992111206,,,,,,
8513432000.0,409.52,25.489999771118164,6529777152.0,3504.277282232776,144.0,0.029701706022024155,2375680.0,2982.981905937195,0.005958070047199726,0.071044921875,2.117136001586914,-0.018054494634270668,0.10172504186630249,-0.021171359345316887,0.003116864711046219,0.0,0.13043785095214844,0.44158005714416504,0.8762465910033987,8.355619430541992,1.271688461303711,8.486058235168457,1.2552546262741089,4.675429105758667,2.7567038536071777,,,,,,
8513432000.0,411.2,25.959999084472656,6529777152.0,3518.807083363438,145.0,0.03400226682424545,2392064.0,2987.6380293369293,0.003266584128141403,0.0330810546875,2.133913516998291,-0.019101563841104507,0.10429582744836807,-0.021339135244488716,0.0022375709377229214,0.0,0.08549767732620239,0.44734033942222595,0.9049836571167852,8.124640464782715,1.4043874740600586,8.210138320922852,1.4512419700622559,4.656123399734497,2.7644574642181396,,,,,,
8513432000.0,420.0,26.450000762939453,6529777152.0,3538.1856515387826,146.0,0.0310867540538311,2408448.0,2992.2686512470245,0.0033663033973425627,0.03338623046875,2.122127056121826,-0.020098820328712463,0.11342169344425201,-0.02122127078473568,0.0011224462650716305,0.0,0.10563924908638,0.4638863503932953,0.8913725112442965,8.271388053894043,1.4046775102615356,8.37702751159668,1.4074798822402954,4.630621910095215,2.7591254711151123,,,,,,
8513432000.0,416.44,26.040000915527344,6529777152.0,3450.75757239164,147.0,0.030342161655426025,2424832.0,2997.016594171524,0.007547067478299141,0.08563232421875,2.0971243381500244,-0.018551742658019066,0.1366433948278427,-0.02097124420106411,0.002419501543045044,0.0,0.09445922076702118,0.5035620927810669,0.8643714068441327,8.229303359985352,1.2904378175735474,8.323762893676758,1.367343783378601,4.747942924499512,2.7627062797546387,,,,,,
8513432000.0,416.2,25.860000610351562,6529777152.0,3553.4053556307426,148.0,0.03721969947218895,2441216.0,3001.627382516861,0.008648352697491646,0.07928466796875,2.0968751907348633,-0.01677459105849266,0.11461784690618515,-0.02096875198185444,0.004194159526377916,0.0,0.12665852904319763,0.46333998441696167,0.8718367347685059,8.344526290893555,1.2503347396850586,8.471185684204102,1.2942519187927246,4.610788345336914,2.771162271499634,,,,,,
8513432000.0,415.96,26.059999465942383,6529777152.0,3475.8285559800056,149.0,0.03205777704715729,2457600.0,3006.3410787582397,0.0048027485609054565,0.04339599609375,2.1022181510925293,-0.019637227058410645,0.11761245876550674,-0.02102218009531498,0.001384953036904335,0.0,0.14048543572425842,0.4711378216743469,0.8740148625544207,8.336852073669434,1.3029565811157227,8.477336883544922,1.3273528814315796,4.713696241378784,2.761603832244873,,,,,,
8513432000.0,419.76,27.56999969482422,6529777152.0,3416.09897297523,150.0,0.03134782239794731,2473984.0,3011.1371927261353,0.0045044817961752415,0.052734375,2.099533796310425,-0.019341781735420227,0.10093235969543457,-0.02099533937871456,0.0016535595059394836,0.0,0.08936895430088043,0.4336904287338257,0.8876452602500122,8.457069396972656,1.2792396545410156,8.546438217163086,1.293849229812622,4.796113967895508,2.7716240882873535,,,,,,
8513432000.0,415.8,26.760000228881836,6529777152.0,3488.380120183529,151.0,0.03334556519985199,2490368.0,3015.8339285850525,0.005316796246916056,0.0517578125,2.0595171451568604,-0.020699966698884964,0.15163105726242065,-0.020595170557498932,-0.00010479893535375595,0.0,0.07716375589370728,0.524770975112915,0.847598686999133,8.565621376037598,1.2785754203796387,8.64278507232666,1.3442341089248657,4.696735858917236,2.767043352127075,,,,,,
8513432000.0,407.08,25.670000076293945,6529777152.0,3573.3383219013717,152.0,0.03188909590244293,2506752.0,3020.418996810913,0.0042497823014855385,0.043212890625,2.091242790222168,-0.019395727664232254,0.12466226518154144,-0.020912427455186844,0.0015166988596320152,0.0,0.09121185541152954,0.47660931944847107,0.8706204031532534,8.561670303344727,1.208156704902649,8.65288257598877,1.3250432014465332,4.585068225860596,2.760472536087036,,,,,,
8513432000.0,403.58,24.93000030517578,6529777152.0,3568.080964070418,153.0,0.03419402614235878,2523136.0,3025.010820865631,0.005126040428876877,0.0513916015625,2.058617115020752,-0.019543565809726715,0.16463743150234222,-0.020586170256137848,0.0010426025837659836,0.0,0.07393520325422287,0.5582132339477539,0.8416388057410871,8.48042106628418,1.3321455717086792,8.55435562133789,1.402732014656067,4.591824054718018,2.7902908325195312,,,,,,
8513432000.0,405.75,25.709999084472656,6529777152.0,3432.9787345030827,154.0,0.031546369194984436,2539520.0,3029.783352613449,0.004867881536483765,0.05169677734375,2.0436997413635254,-0.019544120877981186,0.12777429819107056,-0.02043699473142624,0.0008928715251386166,0.0,0.0761105939745903,0.5014596581459045,0.8796273419269454,8.580894470214844,1.3728054761886597,8.657003402709961,1.4453423023223877,4.772531747817993,2.767470598220825,,,,,,
8513432000.0,411.06,26.229999542236328,6529777152.0,3517.6182848337335,155.0,0.03161483258008957,2555904.0,3034.4410495758057,0.003368545323610306,0.03704833984375,2.0322725772857666,-0.018153896555304527,0.09448002278804779,-0.020322725176811218,0.0021688267588615417,0.0,0.10635191202163696,0.43311765789985657,0.8953868935778092,8.466800689697266,1.3154141902923584,8.573152542114258,1.339098572731018,4.657696962356567,2.8237051963806152,,,,,,
8513432000.0,414.61,26.600000381469727,6529777152.0,3425.4675851695265,156.0,0.03852568194270134,2572288.0,3039.224046230316,0.004990095272660255,0.04205322265625,2.0066335201263428,-0.016140732914209366,0.08363465964794159,-0.020066332072019577,0.003925601486116648,0.0,0.13055449724197388,0.4082847237586975,0.9083882605666431,8.415472030639648,1.3292696475982666,8.546026229858398,1.3489205837249756,4.782996654510498,2.7502553462982178,,,,,,
8513432000.0,418.18,27.06999969482422,6529777152.0,3526.095188054369,157.0,0.03041466698050499,2588672.0,3043.870545864105,0.0038543473929166794,0.04071044921875,1.9909015893936157,-0.019071776419878006,0.09220050275325775,-0.01990901492536068,0.0008372385054826736,0.0,0.1043502539396286,0.4321310520172119,0.8924140388887581,8.654647827148438,1.312353253364563,8.75899887084961,1.3174622058868408,4.6464996337890625,2.7780909538269043,,,,,,
8513432000.0,420.0,27.639999389648438,6529777152.0,3429.633986893528,158.0,0.037087030708789825,2605056.0,3048.6477320194244,0.005237285513430834,0.05792236328125,2.0060904026031494,-0.01817876286804676,0.08143241703510284,-0.020060906186699867,0.0018821395933628082,0.0,0.11710168421268463,0.39793887734413147,0.9111998726992105,8.683642387390137,1.3105601072311401,8.800745010375977,1.3353980779647827,4.777186155319214,2.7575266361236572,,,,,,
8513432000.0,420.0,27.700000762939453,6529777152.0,3558.892281992365,159.0,0.033283621072769165,2621440.0,3053.251411676407,0.00505735632032156,0.05303955078125,2.035515546798706,-0.017089003697037697,0.07373441010713577,-0.02035515569150448,0.0032661515288054943,0.0,0.11140350252389908,0.37010958790779114,0.8797316396355723,9.140304565429688,1.0879757404327393,9.251708030700684,1.06722092628479,4.603679656982422,2.8312976360321045,,,,,,
,,,,,,,,,,,,,,,,,,,,,,,,,,0.021515483036637306,0.4579277038574219,0.3464580178260803,0.021515483036637306,0.4579277038574219,0.3464580178260803
,,,,,,,,,,,,,,,,,,,,,,,,,,0.013815403915941715,0.349256306886673,0.32799944281578064,0.013815403915941715,0.349256306886673,0.32799944281578064
,,,,,,,,,,,,,,,,,,,,,,,,,,0.012062106281518936,0.32209309935569763,0.30782243609428406,0.012062106281518936,0.32209309935569763,0.30782243609428406
,,,,,,,,,,,,,,,,,,,,,,,,,,0.012093097902834415,0.3261454403400421,0.3118657171726227,0.012093097902834415,0.3261454403400421,0.3118657171726227
,,,,,,,,,,,,,,,,,,,,,,,,,,0.012053958140313625,0.3181953430175781,0.3145374655723572,0.012053958140313625,0.3181953430175781,0.3145374655723572
,,,,,,,,,,,,,,,,,,,,,,,,,,0.011377481743693352,0.30967891216278076,0.3012963831424713,0.011377481743693352,0.30967891216278076,0.3012963831424713
8513616000.0,417.46,27.899999618530273,6327188480.0,28.186618956288978,160.0,0.035005003213882446,2637824.0,3634.520134449005,0.004611320793628693,0.04803466796875,2.089401960372925,-0.019251305609941483,0.07871388643980026,-0.020894018933176994,0.0016427133232355118,0.0,0.14046218991279602,0.38768815994262695,0.9413122486697372,7.712471008300781,1.5340076684951782,7.852933406829834,1.6003280878067017,581.2687227725983,2.8547961711883545,,,,,,
8513616000.0,407.74,26.889999389648438,6529777152.0,3410.105120367405,161.0,0.035188257694244385,2654208.0,3639.3246784210205,0.00609766086563468,0.05206298828125,2.0847768783569336,-0.0192473903298378,0.10754688829183578,-0.02084776759147644,0.0016003772616386414,0.0,0.12008864432573318,0.46441417932510376,0.9158018300067972,7.595789909362793,1.4614466428756714,7.715878486633301,1.6004939079284668,4.804543972015381,2.7563512325286865,,,,,,
8513616000.0,405.99,26.440000534057617,6529777152.0,3615.511839049993,162.0,0.03235415369272232,2670592.0,3643.8562636375427,0.004435656126588583,0.04730224609375,2.071331262588501,-0.01958906091749668,0.0843500867486,-0.020713312551379204,0.001124255359172821,0.0,0.17872577905654907,0.3740144968032837,0.9419043753623092,8.122367858886719,1.4900985956192017,8.301093101501465,1.5517317056655884,4.531585216522217,2.768458604812622,,,,,,
8513616000.0,406.09,25.780000686645508,6529777152.0,3584.836689726579,163.0,0.03150158375501633,2686976.0,3648.42662525177,0.0034281390253454447,0.03131103515625,2.066642999649048,-0.01907305419445038,0.11224176734685898,-0.02066643163561821,0.001593373715877533,0.0,0.09263052046298981,0.4641862213611603,0.919222710474384,7.786995887756348,1.5679717063903809,7.879626750946045,1.6332316398620605,4.570361614227295,2.755009174346924,,,,,,
8513616000.0,404.18,25.649999618530273,6529777152.0,3596.741340931071,164.0,0.03086240403354168,2703360.0,3652.9818596839905,0.004946489818394184,0.05609130859375,2.084418535232544,-0.01838318444788456,0.12656815350055695,-0.02084418572485447,0.002461003139615059,0.0,0.0666961669921875,0.5065165758132935,0.9030325552585223,8.689570426940918,1.542630672454834,8.756267547607422,1.6266050338745117,4.555234432220459,2.7519493103027344,,,,,,
8513616000.0,398.1,24.549999237060547,6529777152.0,3616.898134435843,165.0,0.03346775844693184,2719744.0,3657.511708021164,0.006813586689531803,0.0743408203125,2.0675201416015625,-0.017676526680588722,0.13811135292053223,-0.02067520283162594,0.002998676151037216,0.0,0.0892900750041008,0.5217936635017395,0.8950215823347818,8.386236190795898,1.5557974576950073,8.475525856018066,1.6104578971862793,4.529848337173462,2.745405673980713,,,,,,
8513616000.0,403.47,25.479999542236328,6529777152.0,3504.792362472956,166.0,0.037986963987350464,2736128.0,3662.1864500045776,0.004849076271057129,0.04815673828125,2.0509917736053467,-0.01864403486251831,0.09591741859912872,-0.020509915426373482,0.0018658814951777458,0.0,0.10637650638818741,0.43840911984443665,0.9046645357003892,9.0616455078125,1.4001884460449219,9.168022155761719,1.4198870658874512,4.674741983413696,2.743685245513916,,,,,,
8513616000.0,414.16,27.040000915527344,6529777152.0,3556.9002649372574,167.0,0.03142082691192627,2752512.0,3666.7927079200745,0.004204415716230869,0.04876708984375,2.077125310897827,-0.020476531237363815,0.09698307514190674,-0.020771251991391182,0.000294725876301527,0.0,0.07931917905807495,0.44193241000175476,0.9249256527021233,8.869359970092773,1.584007740020752,8.94867992401123,1.6129107475280762,4.606257915496826,2.7553064823150635,,,,,,
8513616000.0,406.84,27.260000228881836,6529777152.0,3555.3399308017556,168.0,0.032881900668144226,2768896.0,3671.4009873867035,0.004725283943116665,0.04730224609375,2.0793049335479736,-0.018738243728876114,0.15088191628456116,-0.020793050527572632,0.002054803539067507,0.0,0.0665573701262474,0.5453423261642456,0.8808222968975151,8.763084411621094,1.5095362663269043,8.829641342163086,1.579689621925354,4.608279466629028,2.7571094036102295,,,,,,
8513616000.0,403.36,26.489999771118164,6529777152.0,3495.1301376757096,169.0,0.03350687772035599,2785280.0,3676.088652610779,0.004554995335638523,0.0413818359375,2.1165127754211426,-0.018653836101293564,0.08813221752643585,-0.02116512693464756,0.002511290367692709,0.0,0.09691623598337173,0.42108428478240967,0.9187357538062577,8.774667739868164,1.4648430347442627,8.871583938598633,1.4771325588226318,4.687665224075317,2.755845308303833,,,,,,
8513616000.0,403.84,26.5,6529777152.0,3502.992743672671,170.0,0.034378133714199066,2801664.0,3680.76579618454,0.0037859580479562283,0.0384521484375,2.1159801483154297,-0.020353659987449646,0.07985995709896088,-0.02115979790687561,0.0008061390835791826,0.0,0.107345812022686,0.3984968066215515,0.9253401532131604,8.651487350463867,1.4455206394195557,8.758833885192871,1.4584161043167114,4.677143573760986,2.756923198699951,,,,,,
8513616000.0,411.12,26.3799991607666,6529777152.0,3401.1139493207397,171.0,0.03542618826031685,2818048.0,3685.5830414295197,0.005489612929522991,0.04998779296875,2.10071063041687,-0.02039628103375435,0.11291901767253876,-0.021007105708122253,0.0006108228117227554,0.0,0.07503709942102432,0.4772499203681946,0.9002423989510101,9.055967330932617,1.460666537284851,9.131004333496094,1.5110318660736084,4.817245244979858,2.7692463397979736,,,,,,
8513616000.0,417.12,27.43000030517578,6529777152.0,3564.9964041612,172.0,0.03398776426911354,2834432.0,3690.17883849144,0.005431625992059708,0.05322265625,2.12976336479187,-0.01878315769135952,0.08897191286087036,-0.02129763551056385,0.0025144778192043304,0.0,0.12087169289588928,0.4164624810218811,0.8917282641807913,9.200050354003906,1.267734169960022,9.320921897888184,1.2656660079956055,4.595797061920166,2.7543416023254395,,,,,,
8513616000.0,418.8,28.559999465942383,6529777152.0,3543.893546238107,173.0,0.03481106832623482,2850816.0,3694.8020021915436,0.007406696677207947,0.060791015625,2.1417574882507324,-0.015415140427649021,0.08639691770076752,-0.02141757495701313,0.006002429872751236,0.0,0.10011430084705353,0.4153469204902649,0.9302746449781847,8.998102188110352,1.5682772397994995,9.09821605682373,1.5729533433914185,4.62316370010376,2.7649683952331543,,,,,,
8513616000.0,413.67,27.260000228881836,6529777152.0,3541.7182090231627,174.0,0.03267316892743111,2867200.0,3699.4280054569244,0.009154332801699638,0.08734130859375,2.1279122829437256,-0.01699676178395748,0.15153366327285767,-0.021279120817780495,0.0042823608964681625,0.0,0.023869575932621956,0.5351312160491943,0.8615647371028953,9.177066802978516,1.3287022113800049,9.200937271118164,1.4382601976394653,4.626003265380859,2.760669231414795,,,,,,
8513616000.0,410.91,26.190000534057617,6529777152.0,3500.339479280807,175.0,0.03221432864665985,2883584.0,3704.1086943149567,0.008839651942253113,0.099365234375,2.143734931945801,-0.017473742365837097,0.11237658560276031,-0.021437350660562515,0.003963605500757694,0.0,0.07697108387947083,0.4443279206752777,0.8849876084435779,9.186805725097656,1.249963402748108,9.263775825500488,1.3101797103881836,4.680688858032227,2.7554471492767334,,,,,,
8513616000.0,405.51,25.510000228881836,6529777152.0,3531.539593706432,176.0,0.0361487939953804,2899968.0,3708.7480306625366,0.004763742908835411,0.0450439453125,2.139575481414795,-0.018462786450982094,0.1524316370487213,-0.02139575406908989,0.0029329657554626465,0.0,0.011170919053256512,0.5234439969062805,0.8926230561442202,8.991412162780762,1.5065840482711792,9.002583503723145,1.597403883934021,4.639336347579956,2.764158010482788,,,,,,
8513616000.0,406.47,26.010000228881836,6529777152.0,3490.8005243758735,177.0,0.029175294563174248,2916352.0,3713.441509962082,0.00364136416465044,0.03302001953125,2.1328630447387695,-0.02051980048418045,0.1806727647781372,-0.021328631788492203,0.0008088294416666031,0.0,0.04686397314071655,0.5989705324172974,0.8113942246213683,9.250444412231445,1.3496440649032593,9.297307968139648,1.3791999816894531,4.693479299545288,2.764073133468628,,,,,,
8513616000.0,407.91,26.0,6529777152.0,3610.035678056752,178.0,0.03287006914615631,2932736.0,3717.979969263077,0.009722765535116196,0.06298828125,2.1219520568847656,-0.01974160224199295,0.1336381882429123,-0.021219521760940552,0.0014779185876250267,0.0,0.0389401912689209,0.5198749899864197,0.8488913263638841,9.521585464477539,1.2637100219726562,9.560524940490723,1.3373804092407227,4.538459300994873,2.7624242305755615,,,,,,
8513616000.0,411.91,25.75,6529777152.0,3604.0352252022576,179.0,0.036575328558683395,2949120.0,3722.525984764099,0.006129666697233915,0.06536865234375,2.114663600921631,-0.020884420722723007,0.16013559699058533,-0.021146634593605995,0.00026221293956041336,0.0,-0.018245084211230278,0.5655326843261719,0.8261189335366677,9.3411226272583,1.2482556104660034,9.3228759765625,1.356218934059143,4.546015501022339,2.778795003890991,,,,,,
8513616000.0,409.77,25.690000534057617,6529777152.0,3478.767724018629,180.0,0.03090083971619606,2965504.0,3727.2356984615326,0.0028432337567210197,0.0284423828125,2.0999467372894287,-0.020159803330898285,0.11306245625019073,-0.020999467000365257,0.0008396627381443977,0.0,0.048825327306985855,0.46910572052001953,0.8901966344548122,9.279251098632812,1.3345967531204224,9.328075408935547,1.4156688451766968,4.709713697433472,2.7609450817108154,,,,,,
8513616000.0,409.44,25.739999771118164,6529777152.0,3557.657093914579,181.0,0.03211719170212746,2981888.0,3731.8409764766693,0.004119540099054575,0.04296875,2.075512409210205,-0.018642157316207886,0.1453169882297516,-0.02075512334704399,0.0021129678934812546,0.0,0.008715624921023846,0.5368520617485046,0.8677241047232935,9.403373718261719,1.3985713720321655,9.412090301513672,1.4761016368865967,4.605278015136719,2.7595534324645996,,,,,,
8513616000.0,412.62,25.93000030517578,6529777152.0,3518.8436606616806,182.0,0.03322361409664154,2998272.0,3736.4970514774323,0.006096814293414354,0.05859375,2.082547903060913,-0.015198210254311562,0.11542302370071411,-0.020825479179620743,0.005627269856631756,0.0,0.021661028265953064,0.4790900647640228,0.9038808415943265,9.174909591674805,1.4979915618896484,9.19657039642334,1.5452944040298462,4.6560750007629395,2.7592532634735107,,,,,,
8513616000.0,406.18,25.360000610351562,6529777152.0,3476.829011465022,183.0,0.030202459543943405,3014656.0,3741.2093913555145,0.006485851481556892,0.05255126953125,2.1008191108703613,-0.014754468575119972,0.16502350568771362,-0.021008189767599106,0.006253721658140421,0.0,0.007852612063288689,0.5847752094268799,0.8898792754623027,9.063108444213867,1.5648672580718994,9.070960998535156,1.762197494506836,4.712339878082275,2.8160765171051025,,,,,,
