CpuMaxMemory,EpLenMean,EpRewMean,GpuMaxMemory,IPS_total,Iter,Misc/FrameRewMean,Misc/InteractCount,Misc/TimeElapsed,Opt/approxkl,Opt/clipfrac,Opt/entropy,Opt/loss_pi,Opt/loss_vf,Opt/negent,Opt/pg,Opt/pi_kl,VFStats/AdvMean,VFStats/AdvStd,VFStats/EV,VFStats/VpredMean,VFStats/VpredStd,VFStats/VtargMean,VFStats/VtargStd,del_time,wait_optimization,scaled/pol_distance,scaled/vf_aux,scaled/vf_true,unscaled/pol_distance,unscaled/vf_aux,unscaled/vf_true
2365992000.0,85.17,-2.380000114440918,6317166080.0,3675.3709621019943,0.0,-0.012079974636435509,16384.0,4.4577813148498535,0.0040306332521140575,0.036865234375,2.703861951828003,-0.026256786659359932,0.17356812953948975,-0.027038617059588432,0.000781831331551075,0.0,-0.1609395444393158,0.5390554070472717,-0.0008305725022301758,-0.08933088183403015,0.02697959542274475,-0.25027042627334595,0.5388317704200745,4.4577813148498535,2.715939521789551,,,,,,
2563492000.0,82.87,-2.25,6519754752.0,3579.4688363246764,1.0,-0.012672463431954384,32768.0,9.034996747970581,0.0013698884285986423,0.01458740234375,2.7038378715515137,-0.026443500071763992,0.15807996690273285,-0.027038374915719032,0.0005948804318904877,0.0,-0.12291808426380157,0.5513511300086975,0.018116181349555283,-0.19030490517616272,0.034399669617414474,-0.3132229745388031,0.5564141869544983,4.5772154331207275,2.7191872596740723,,,,,,
2760964000.0,83.38,-2.5399999618530273,6519754752.0,3552.4413365056034,2.0,-0.013213321566581726,49152.0,13.64703631401062,0.00032337239827029407,0.0,2.706918239593506,-0.027064505964517593,0.16994217038154602,-0.027069181203842163,4.675472155213356e-06,0.0,-0.13350464403629303,0.5744436383247375,0.034863026322224266,-0.27134525775909424,0.06347137689590454,-0.4048498868942261,0.5847267508506775,4.612039566040039,2.73197078704834,,,,,,
2958964000.0,89.12,-2.799999952316284,6519754752.0,3619.9156896674062,3.0,-0.01369613129645586,65536.0,18.17310857772827,7.906951213954017e-05,0.0,2.707420587539673,-0.027141520753502846,0.16263321042060852,-0.02707420475780964,-6.731599569320679e-05,0.0,-0.12854361534118652,0.5614500045776367,0.04509977123113762,-0.29679882526397705,0.07366344332695007,-0.4253424406051636,0.5745556354522705,4.526072263717651,2.7265262603759766,,,,,,
3157228000.0,88.16,-2.7899999618530273,6519754752.0,3646.8478929661096,4.0,-0.012807930819690228,81920.0,22.6657555103302,5.3564206609735265e-05,0.0,2.70743989944458,-0.02700601890683174,0.1497306525707245,-0.02707439661026001,6.837956607341766e-05,0.0,-0.06691284477710724,0.5477842092514038,0.07809991567365648,-0.4999177157878876,0.13287650048732758,-0.5668305158615112,0.5705155730247498,4.492646932601929,2.7314908504486084,,,,,,
3354964000.0,89.73,-3.069999933242798,6519754752.0,3556.8527667059484,5.0,-0.015679463744163513,98304.0,27.272074937820435,6.706354906782508e-05,0.0,2.7074360847473145,-0.02708110772073269,0.17640453577041626,-0.027074357494711876,-6.748363375663757e-06,0.0,-0.1162034273147583,0.5897544026374817,0.11493421585546548,-0.48790037631988525,0.15526516735553741,-0.6041038036346436,0.626878559589386,4.606319427490234,2.745305299758911,,,,,,
3552964000.0,80.9,-2.0799999237060547,6519754752.0,3473.090055606253,6.0,-0.010541001334786415,114688.0,31.989487886428833,0.00011671114043565467,0.0,2.706704616546631,-0.02689087949693203,0.1638280153274536,-0.027067044749855995,0.00017616478726267815,0.0,-0.00038704322651028633,0.5659653544425964,0.12377682300239556,-0.6286797523498535,0.19729498028755188,-0.6290667653083801,0.6046199202537537,4.717412948608398,2.7500882148742676,,,,,,
3751756000.0,89.75,-2.5799999237060547,6519754752.0,3596.2239118579323,7.0,-0.011120188981294632,131072.0,36.54537773132324,0.00017655435658525676,0.0,2.70684814453125,-0.027001168578863144,0.13622821867465973,-0.0270684827119112,6.731436587870121e-05,0.0,-0.03907990828156471,0.5178473591804504,0.10160173770484526,-0.5199174880981445,0.13174058496952057,-0.5589973330497742,0.5463455319404602,4.555889844894409,2.7522833347320557,,,,,,
3948700000.0,86.19,-2.2300000190734863,6519754752.0,3655.035268859091,8.0,-0.010816582478582859,147456.0,41.027961015701294,0.000677184434607625,0.0,2.7037301063537598,-0.027080845087766647,0.14054104685783386,-0.027037300169467926,-4.354352131485939e-05,0.0,-0.05982760339975357,0.5248639583587646,0.13780915495905455,-0.4649354815483093,0.1507447510957718,-0.5247631072998047,0.5652557611465454,4.482583284378052,2.75079607963562,,,,,,
4146436000.0,82.76,-2.25,6519754752.0,3554.540879652116,9.0,-0.010792788118124008,163840.0,45.63727641105652,0.0009510823874734342,0.00390625,2.7017111778259277,-0.026967521756887436,0.14818371832370758,-0.02701711095869541,4.9588270485401154e-05,0.0,-0.016915710642933846,0.5455140471458435,0.2010925729036782,-0.5912282466888428,0.2342490255832672,-0.6081439256668091,0.6103202104568481,4.609315395355225,2.7531063556671143,,,,,,
4344436000.0,83.72,-1.9299999475479126,6519754752.0,3670.3057948812198,10.0,-0.012626390904188156,180224.0,50.10120964050293,0.0030495421960949898,0.02734375,2.689911127090454,-0.027391016483306885,0.16541291773319244,-0.02689911052584648,-0.0004919078201055527,0.0,-0.04385679215192795,0.5762364268302917,0.19618078347826473,-0.5410268306732178,0.19744858145713806,-0.5848836302757263,0.6427196264266968,4.463933229446411,2.758256196975708,,,,,,
4542436000.0,87.7,-2.2100000381469727,6519754752.0,3550.610626802251,11.0,-0.010944947600364685,196608.0,54.71562719345093,0.0009141319897025824,0.0,2.7012879848480225,-0.026335861533880234,0.14443501830101013,-0.02701287902891636,0.000677015632390976,0.0,-0.037866346538066864,0.527445375919342,0.22674184407776732,-0.49249783158302307,0.23309063911437988,-0.5303641557693481,0.5998120307922363,4.614417552947998,2.764887809753418,,,,,,
4740172000.0,82.37,-1.659999966621399,6519754752.0,3546.608699197553,12.0,-0.01053689606487751,212992.0,59.335251569747925,0.0022665634751319885,0.0179443359375,2.6923694610595703,-0.027938440442085266,0.13437066972255707,-0.02692369371652603,-0.001014750450849533,0.0,-0.005713693331927061,0.5161276459693909,0.3419688092734725,-0.5992790460586548,0.31275904178619385,-0.6049927473068237,0.6362589001655579,4.619624376296997,2.755849599838257,,,,,,
4938964000.0,80.44,-2.0399999618530273,6519754752.0,3608.395039931301,13.0,-0.011017684824764729,229376.0,63.87577438354492,0.002365309512242675,0.02703857421875,2.6688625812530518,-0.026307741180062294,0.1417696475982666,-0.026688626036047935,0.00038088392466306686,0.0,0.0035037370398640633,0.5298769474029541,0.3739592181643965,-0.6333935856819153,0.35697877407073975,-0.6298898458480835,0.6696898341178894,4.540522813796997,2.7632408142089844,,,,,,
5135908000.0,82.28,-2.450000047683716,6519754752.0,3641.45842240985,14.0,-0.01124697644263506,245760.0,68.37507057189941,0.002193206688389182,0.01800537109375,2.6696338653564453,-0.026026293635368347,0.1351614147424698,-0.0266963392496109,0.0006700446829199791,0.0,-0.015313847921788692,0.5194713473320007,0.3786362472480197,-0.6179807186126709,0.3620789349079132,-0.6332945823669434,0.6590049266815186,4.499296188354492,2.755162239074707,,,,,,
5333644000.0,80.42,-2.380000114440918,6519754752.0,3594.3134064308156,15.0,-0.013294403441250324,262144.0,72.93338203430176,0.00039263354847207665,0.0,2.6715238094329834,-0.02637893706560135,0.13034315407276154,-0.026715237647294998,0.0003363015130162239,0.0,-0.013902660459280014,0.5126993656158447,0.483265440846003,-0.621280312538147,0.43482506275177,-0.6351829767227173,0.7132290601730347,4.558311462402344,2.7650699615478516,,,,,,
5531380000.0,81.28,-1.9700000286102295,6519754752.0,3562.7212064403207,16.0,-0.011181470938026905,278528.0,77.53211402893066,0.0006738029769621789,0.0042724609375,2.6720635890960693,-0.026953794062137604,0.14713197946548462,-0.02672063745558262,-0.00023315474390983582,0.0,0.01810944825410843,0.5243058800697327,0.4938064161696828,-0.6184487342834473,0.4594920575618744,-0.6003392934799194,0.7369303107261658,4.598731994628906,2.760775089263916,,,,,,
5729380000.0,82.1,-1.6699999570846558,6519754752.0,3623.038372918615,17.0,-0.011947356164455414,294912.0,82.05428528785706,0.0014237541472539306,0.00701904296875,2.656378984451294,-0.02635781839489937,0.11029829829931259,-0.026563789695501328,0.00020597316324710846,0.0,-0.03979959711432457,0.4687287509441376,0.523515397747474,-0.4825286567211151,0.43857675790786743,-0.52232825756073,0.6790428757667542,4.522171258926392,2.765517234802246,,,,,,
5927116000.0,81.39,-2.1500000953674316,6519754752.0,3576.1068002644843,18.0,-0.011601835489273071,311296.0,86.63580393791199,0.0029417709447443485,0.0380859375,2.647897958755493,-0.026517139747738838,0.11645744740962982,-0.026478977873921394,-3.816001117229462e-05,0.0,-0.024993285536766052,0.48135825991630554,0.4794800584690674,-0.4660646915435791,0.4044974446296692,-0.49105799198150635,0.6671903133392334,4.581518650054932,2.771319627761841,,,,,,
6125908000.0,79.66,-1.9199999570846558,6519754752.0,3494.9603801113676,19.0,-0.011000342667102814,327680.0,91.32369685173035,0.0033749209251254797,0.04669189453125,2.668851375579834,-0.025273216888308525,0.10415667295455933,-0.02668851613998413,0.00141529506072402,0.0,-0.03189314901828766,0.46114611625671387,0.48527262479153166,-0.3680521249771118,0.38655519485473633,-0.39994528889656067,0.6427615880966187,4.687892913818359,2.8005874156951904,,,,,,
6322852000.0,77.89,-2.4200000762939453,6519754752.0,3476.2308495882844,20.0,-0.013342036865651608,344064.0,96.03684759140015,0.0032091184984892607,0.02923583984375,2.6312649250030518,-0.026283441111445427,0.12128262221813202,-0.02631264738738537,2.9207207262516022e-05,0.0,-0.07066071033477783,0.4926181137561798,0.5447616353066239,-0.3800621032714844,0.4745131731033325,-0.4507228136062622,0.7301144599914551,4.7131507396698,2.798450231552124,,,,,,
6520852000.0,79.97,-1.6100000143051147,6519754752.0,3623.356630801033,21.0,-0.009211665950715542,360448.0,100.55862164497375,0.0008009779849089682,0.0025634765625,2.659231662750244,-0.026072002947330475,0.10829649865627289,-0.0265923123806715,0.0005203117616474628,0.0,0.02454591728746891,0.43477508425712585,0.6208446315951616,-0.4865896999835968,0.5249693989753723,-0.46204379200935364,0.7060834169387817,4.521774053573608,2.7808492183685303,,,,,,
6718588000.0,82.25,-2.869999885559082,6519754752.0,3551.177588963567,22.0,-0.013384206220507622,376832.0,105.17230248451233,0.0004393095150589943,0.0,2.6664257049560547,-0.026837389916181564,0.1230676993727684,-0.026664258912205696,-0.00017313356511294842,0.0,0.004770602099597454,0.49131327867507935,0.6087017437626931,-0.645550012588501,0.5393869280815125,-0.6407793760299683,0.7854246497154236,4.613680839538574,2.8441197872161865,,,,,,
6916588000.0,86.73,-1.4500000476837158,6519754752.0,3518.723661139006,23.0,-0.01084756851196289,393216.0,109.82853627204895,0.002021203050389886,0.00244140625,2.6469647884368896,-0.026041850447654724,0.10932056605815887,-0.026469649747014046,0.00042779697105288506,0.0,0.0439654104411602,0.45581844449043274,0.6483755747102982,-0.6407353281974792,0.5935314893722534,-0.5967699289321899,0.7686919569969177,4.656233787536621,2.7935760021209717,,,,,,
7114324000.0,75.04,-1.190000057220459,6519754752.0,3455.3898451091604,24.0,-0.008316081948578358,409600.0,114.57011413574219,0.0010559667134657502,0.00396728515625,2.6454927921295166,-0.025942638516426086,0.13314151763916016,-0.026454929262399673,0.000512292142957449,0.0,0.05394100397825241,0.4452308118343353,0.6343294810959257,-0.5825951099395752,0.5695913434028625,-0.5286540985107422,0.736275315284729,4.741577863693237,2.8169267177581787,,,,,,
7313116000.0,79.6,-1.899999976158142,6519754752.0,3404.595046098132,25.0,-0.010183274745941162,425984.0,119.38243389129639,0.0025976349133998156,0.0279541015625,2.6363112926483154,-0.02564432844519615,0.11410616338253021,-0.026363110169768333,0.0007187789306044579,0.0,0.04009176418185234,0.46036651730537415,0.6093985846426389,-0.5415734052658081,0.5723909735679626,-0.5014816522598267,0.7366086840629578,4.812319755554199,2.7925829887390137,,,,,,
7510060000.0,79.44,-2.069999933242798,6519754752.0,3495.705836352209,26.0,-0.011888887733221054,442368.0,124.06932711601257,0.0024588070809841156,0.0174560546875,2.6559817790985107,-0.026100005954504013,0.10185708105564117,-0.026559820398688316,0.0004598102532327175,0.0,-0.031103741377592087,0.4417981207370758,0.6195461379838316,-0.41385626792907715,0.504009485244751,-0.4449600279331207,0.7162635326385498,4.6868932247161865,2.8157341480255127,,,,,,
7708060000.0,80.33,-1.9600000381469727,6519754752.0,3417.221662068317,27.0,-0.010515560396015644,458752.0,128.8638653755188,0.0026368792168796062,0.02587890625,2.6403565406799316,-0.027006015181541443,0.12324835360050201,-0.02640356495976448,-0.0006024502217769623,0.0,0.012746063992381096,0.4454590976238251,0.6631781141096196,-0.5245379209518433,0.5979479551315308,-0.5117918252944946,0.7675517201423645,4.794538259506226,2.8033840656280518,,,,,,
7905796000.0,77.14,-1.7400000095367432,6519754752.0,3434.6823962190215,28.0,-0.010598711669445038,475136.0,133.6340298652649,0.0009817215614020824,0.00262451171875,2.656451940536499,-0.025535859167575836,0.12571296095848083,-0.026564516127109528,0.0010286606848239899,0.0,0.017981581389904022,0.4494880437850952,0.6640707141011277,-0.5057839155197144,0.594353199005127,-0.4878023862838745,0.7755222320556641,4.770164489746094,2.793992280960083,,,,,,
8103796000.0,77.25,-2.259999990463257,6519754752.0,3415.4234049436245,29.0,-0.011966021731495857,491520.0,138.43109250068665,0.00266725430265069,0.01654052734375,2.6368954181671143,-0.026295015588402748,0.12365464866161346,-0.02636895515024662,7.393769919872284e-05,0.0,0.03471222519874573,0.46688196063041687,0.6603496622225965,-0.635478138923645,0.630330502986908,-0.6007659435272217,0.8011080026626587,4.797062635421753,2.7907536029815674,,,,,,
8301532000.0,77.74,-0.9599999785423279,6519754752.0,3483.713779505904,30.0,-0.009274983778595924,507904.0,143.13411951065063,0.003648156300187111,0.0389404296875,2.608055830001831,-0.026054803282022476,0.10231248289346695,-0.026080558076500893,2.575526013970375e-05,0.0,0.08217650651931763,0.43754950165748596,0.6473334080749737,-0.6035751700401306,0.6036418080329895,-0.5213987231254578,0.736792266368866,4.703027009963989,2.8949012756347656,,,,,,
8500324000.0,73.47,-1.4500000476837158,6519754752.0,3574.801800960574,31.0,-0.00995918083935976,524288.0,147.71731066703796,0.001716660219244659,0.0133056640625,2.597799062728882,-0.025715503841638565,0.08406208455562592,-0.02597799338400364,0.0002624876797199249,0.0,0.05043577402830124,0.4116828739643097,0.6986717284032071,-0.5043685436248779,0.6019735336303711,-0.45393282175064087,0.7499682307243347,4.583191156387329,2.777169942855835,,,,,,
,,,,,,,,,,,,,,,,,,,,,,,,,,0.0014992939541116357,0.15190176665782928,0.12633992731571198,0.0014992939541116357,0.15190176665782928,0.12633992731571198
,,,,,,,,,,,,,,,,,,,,,,,,,,0.0008734578732401133,0.10518347471952438,0.10089981555938721,0.0008734578732401133,0.10518347471952438,0.10089981555938721
,,,,,,,,,,,,,,,,,,,,,,,,,,0.000903324456885457,0.0935649648308754,0.09292953461408615,0.000903324456885457,0.0935649648308754,0.09292953461408615
,,,,,,,,,,,,,,,,,,,,,,,,,,0.0006598728941753507,0.08947885781526566,0.08933665603399277,0.0006598728941753507,0.08947885781526566,0.08933665603399277
,,,,,,,,,,,,,,,,,,,,,,,,,,0.0007461979985237122,0.08752679824829102,0.08816273510456085,0.0007461979985237122,0.08752679824829102,0.08816273510456085
,,,,,,,,,,,,,,,,,,,,,,,,,,0.0006988332024775445,0.08581838011741638,0.08553943783044815,0.0006988332024775445,0.08581838011741638,0.08553943783044815
8512520000.0,77.21,-1.4800000190734863,6327188480.0,28.174742325567124,32.0,-0.008766427636146545,540672.0,729.2310583591461,0.0016791988164186478,0.01422119140625,2.5663325786590576,-0.02572346292436123,0.05367450788617134,-0.025663327425718307,-6.0138292610645294e-05,0.0,0.06559857726097107,0.3327023386955261,0.7899839302512893,-0.5525336265563965,0.5798531770706177,-0.4869350492954254,0.7259882092475891,581.5137476921082,2.800657033920288,,,,,,
8512520000.0,77.68,-1.899999976158142,6529777152.0,3401.032816009801,33.0,-0.010814033448696136,557056.0,734.0484185218811,0.0015426224563270807,0.011962890625,2.6044092178344727,-0.026985974982380867,0.06606464087963104,-0.026044093072414398,-0.0009418828412890434,0.0,0.03217977285385132,0.3784838914871216,0.7805830682023174,-0.49815884232521057,0.6774433255195618,-0.46597906947135925,0.8080018162727356,4.817360162734985,2.8033699989318848,,,,,,
8512520000.0,77.73,-1.7000000476837158,6529777152.0,3494.6605449972753,34.0,-0.009280283004045486,573440.0,738.7367136478424,0.0034176784101873636,0.0400390625,2.5982468128204346,-0.02538228966295719,0.06336507201194763,-0.025982467457652092,0.0006001768633723259,0.0,0.04763580486178398,0.3589809238910675,0.7825095104814503,-0.40712374448776245,0.7046595215797424,-0.35948795080184937,0.7697526812553406,4.688295125961304,2.7765400409698486,,,,,,
8512520000.0,75.09,-0.46000000834465027,6529777152.0,3637.6627762470457,35.0,-0.004443286452442408,589824.0,743.240704536438,0.0037678841035813093,0.02984619140625,2.5056610107421875,-0.024227624759078026,0.04420734569430351,-0.025056609883904457,0.0008289869874715805,0.0,0.07381351292133331,0.3114493489265442,0.7723866633170855,-0.29113686084747314,0.6745218634605408,-0.21732336282730103,0.652812659740448,4.503990888595581,2.7688491344451904,,,,,,
8512520000.0,79.22,-0.6600000262260437,6529777152.0,3522.1692430584367,36.0,-0.00432466110214591,606208.0,747.8923833370209,0.004055991768836975,0.04705810546875,2.581845283508301,-0.027100810781121254,0.03973783180117607,-0.02581845037639141,-0.0012823649449273944,0.0,0.027747781947255135,0.2884233295917511,0.7122091461156212,-0.1769176721572876,0.46905550360679626,-0.1491698920726776,0.537640392780304,4.651678800582886,2.7745978832244873,,,,,,
8512520000.0,78.98,-0.27000001072883606,6529777152.0,3430.273922137281,37.0,-0.0009572480339556932,622592.0,752.6686782836914,0.0028353051748126745,0.02374267578125,2.566467046737671,-0.02628432959318161,0.037682726979255676,-0.025664668530225754,-0.0006196592003107071,0.0,0.05092892050743103,0.27762264013290405,0.7171759285931114,-0.12747615575790405,0.4699648320674896,-0.07654723525047302,0.5220314860343933,4.776294946670532,2.7545106410980225,,,,,,
8512520000.0,76.13,-0.09000000357627869,6529777152.0,3629.5255455685333,38.0,-0.0002627693465910852,638976.0,757.1827669143677,0.008336758241057396,0.10394287109375,2.587618350982666,-0.023009300231933594,0.03670051321387291,-0.025876184925436974,0.002866881899535656,0.0,0.042574524879455566,0.27315834164619446,0.7183274446191741,-0.08372589945793152,0.46055102348327637,-0.04115137457847595,0.514685869216919,4.5140886306762695,2.756828546524048,,,,,,
8512520000.0,77.38,-0.10999999940395355,6529777152.0,3546.454768990992,39.0,-0.0002056532830465585,655360.0,761.8025918006897,0.00555151142179966,0.0589599609375,2.5430984497070312,-0.024802222847938538,0.033066850155591965,-0.025430982932448387,0.0006287619471549988,0.0,0.02371099777519703,0.2639082968235016,0.6761779483477908,-0.014415199868381023,0.37436363101005554,0.009295796975493431,0.46376699209213257,4.6198248863220215,2.769993782043457,,,,,,
8512520000.0,84.44,0.4399999976158142,6529777152.0,3603.3896627338977,40.0,0.0008564703748561442,671744.0,766.3494217395782,0.006061073392629623,0.07464599609375,2.531712532043457,-0.026224534958600998,0.038221437484025955,-0.025317125022411346,-0.0009074052795767784,0.0,0.032188791781663895,0.27872490882873535,0.6773281410966788,0.026256117969751358,0.4205711781978607,0.05844490975141525,0.4906764328479767,4.54682993888855,2.7710676193237305,,,,,,
8512520000.0,76.54,0.41999998688697815,6529777152.0,3566.446393468496,41.0,0.0013666943414136767,688128.0,770.943350315094,0.0020456588827073574,0.02105712890625,2.5427072048187256,-0.0256076380610466,0.030469242483377457,-0.025427071377635002,-0.00018056156113743782,0.0,0.02981884777545929,0.2499188333749771,0.7081139362669013,0.054048120975494385,0.3877050578594208,0.08386696875095367,0.46258580684661865,4.593928575515747,2.7609405517578125,,,,,,
8512520000.0,79.43,0.699999988079071,6529777152.0,3559.5455979605595,42.0,0.004958376754075289,704512.0,775.5461850166321,0.00774509459733963,0.09320068359375,2.5265371799468994,-0.02346329763531685,0.02844616211950779,-0.025265369564294815,0.00180207216180861,0.0,0.04497620463371277,0.24408592283725739,0.6759920206811912,0.1373220533132553,0.36720970273017883,0.18229824304580688,0.4288100004196167,4.602834701538086,2.7659964561462402,,,,,,
8512520000.0,85.4,0.7400000095367432,6529777152.0,3526.1992253078356,43.0,0.003904373850673437,720896.0,780.1925475597382,0.0037998706102371216,0.04034423828125,2.5532665252685547,-0.02292696386575699,0.028771402314305305,-0.025532664731144905,0.0026057003997266293,0.0,0.01575707271695137,0.24475646018981934,0.69393242883021,0.14539381861686707,0.3767637014389038,0.16115087270736694,0.44241058826446533,4.646362543106079,2.757072925567627,,,,,,
8512520000.0,80.01,0.8299999833106995,6529777152.0,3623.181066267284,44.0,0.00634252093732357,737280.0,784.714540719986,0.006462142337113619,0.0828857421875,2.5316741466522217,-0.026228873059153557,0.021474996581673622,-0.025316739454865456,-0.0009121308103203773,0.0,0.04137236624956131,0.20258957147598267,0.7062003638244978,0.19019702076911926,0.30318206548690796,0.23156937956809998,0.37375885248184204,4.521993160247803,2.763810396194458,,,,,,
8512520000.0,88.89,1.2699999809265137,6529777152.0,3464.6430652362164,45.0,0.005887106992304325,753664.0,789.4434549808502,0.005064439959824085,0.06146240234375,2.5290322303771973,-0.025141332298517227,0.021272538229823112,-0.025290321558713913,0.00014898832887411118,0.0,0.054465748369693756,0.20337022840976715,0.6972432648930166,0.1612817794084549,0.28930944204330444,0.21574753522872925,0.36960726976394653,4.728914260864258,2.7681820392608643,,,,,,
8512520000.0,87.32,1.2899999618530273,6529777152.0,3640.5966669744666,46.0,0.00831542257219553,770048.0,793.9438161849976,0.006895879283547401,0.0784912109375,2.535127639770508,-0.024043910205364227,0.025909854099154472,-0.025351274758577347,0.0013073659501969814,0.0,0.05946894735097885,0.23228633403778076,0.671703410580539,0.2460736632347107,0.3430628776550293,0.30554261803627014,0.40540626645088196,4.500361204147339,2.7677721977233887,,,,,,
8512520000.0,87.65,1.399999976158142,6529777152.0,3589.883260829886,47.0,0.007361925672739744,786432.0,798.5077528953552,0.015112156048417091,0.15966796875,2.510354995727539,-0.018357479944825172,0.03238845244050026,-0.025103546679019928,0.006746064871549606,0.0,0.040419481694698334,0.257325679063797,0.7089815995725535,0.3061184287071228,0.35331693291664124,0.3465379476547241,0.4770050048828125,4.563936710357666,2.7804574966430664,,,,,,
8512520000.0,85.65,0.9900000095367432,6529777152.0,3647.629547489319,48.0,0.005792719312012196,802816.0,802.9994370937347,0.004815616644918919,0.04608154296875,2.5098752975463867,-0.022608619183301926,0.03055991791188717,-0.025098752230405807,0.0024901358410716057,0.0,0.018425796180963516,0.24586932361125946,0.7701558487801028,0.31107330322265625,0.4269114136695862,0.32949909567832947,0.512846827507019,4.491684198379517,2.756397008895874,,,,,,
8512520000.0,89.11,1.3300000429153442,6529777152.0,3591.326354860656,49.0,0.007571497932076454,819200.0,807.561539888382,0.0071198949590325356,0.08184814453125,2.5256972312927246,-0.024922199547290802,0.02642516791820526,-0.02525697462260723,0.00033477507531642914,0.0,0.03501046448945999,0.23151950538158417,0.7374898523103357,0.29216665029525757,0.3860574960708618,0.32717710733413696,0.4518710970878601,4.562102794647217,2.7679522037506104,,,,,,
8512520000.0,87.36,1.0700000524520874,6529777152.0,3620.18953438013,50.0,0.007013645023107529,835584.0,812.08726978302,0.006919343955814838,0.08624267578125,2.492281913757324,-0.02388855628669262,0.03054650127887726,-0.024922817945480347,0.0010342649184167385,0.0,0.024881457909941673,0.24596720933914185,0.7283657941605224,0.31639665365219116,0.3856636583805084,0.3412781059741974,0.4719380736351013,4.5257298946380615,2.767282724380493,,,,,,
8512520000.0,91.02,1.3200000524520874,6529777152.0,3508.396794734506,51.0,0.008520224131643772,851968.0,816.7572090625763,0.0064437417313456535,0.0777587890625,2.4973649978637695,-0.02321406826376915,0.028383692726492882,-0.02497364766895771,0.0017595812678337097,0.0,0.04875224083662033,0.23956313729286194,0.7411887511010471,0.30863845348358154,0.3955172598361969,0.35739070177078247,0.4708997309207916,4.669939279556274,2.75687837600708,,,,,,
8512520000.0,84.72,1.5199999809265137,6529777152.0,3451.306958223299,52.0,0.0100620798766613,868352.0,821.50439620018,0.007830867543816566,0.09039306640625,2.508333206176758,-0.023017648607492447,0.025260578840970993,-0.025083331391215324,0.0020656846463680267,0.0,0.04171521216630936,0.22184264659881592,0.8201393919458476,0.42624014616012573,0.44294631481170654,0.4679553508758545,0.523090660572052,4.74718713760376,2.7892913818359375,,,,,,
8512520000.0,93.07,2.0299999713897705,6529777152.0,3530.4921732625858,53.0,0.011075183749198914,884736.0,826.1451089382172,0.0060765789821743965,0.07061767578125,2.5105366706848145,-0.025901539251208305,0.030391819775104523,-0.025105368345975876,-0.0007961655501276255,0.0,0.0014902738621458411,0.24745874106884003,0.8303425029925239,0.6074482798576355,0.5322908163070679,0.6089385747909546,0.6007811427116394,4.640712738037109,2.770540475845337,,,,,,
8512520000.0,94.77,1.6200000047683716,6529777152.0,3551.341656448902,54.0,0.008201630786061287,901120.0,830.758576631546,0.0063503761775791645,0.076171875,2.4695708751678467,-0.024350102990865707,0.03446587547659874,-0.024695707485079765,0.00034560193307697773,0.0,0.006114407442510128,0.26651903986930847,0.7948971848239742,0.5221312642097473,0.5210000276565552,0.5282456874847412,0.588494598865509,4.613467693328857,2.7823832035064697,,,,,,
8512520000.0,96.36,2.0299999713897705,6529777152.0,3436.6104688893615,55.0,0.011516660451889038,917504.0,835.5260648727417,0.007716748397797346,0.08929443359375,2.4773640632629395,-0.02369391918182373,0.03587319329380989,-0.02477364055812359,0.0010797195136547089,0.0,0.050540562719106674,0.24802909791469574,0.8057489524310526,0.522231936454773,0.5010890960693359,0.5727725625038147,0.5627570748329163,4.767488241195679,2.8381903171539307,,,,,,
8512520000.0,102.19,2.0299999713897705,6529777152.0,3638.5229504812423,56.0,0.011209296993911266,933888.0,840.028990983963,0.010103248991072178,0.10137939453125,2.491826057434082,-0.019612357020378113,0.07091619074344635,-0.024918261915445328,0.005305906757712364,0.0,0.048509158194065094,0.37144002318382263,0.6355145282236598,0.5663564205169678,0.4921077787876129,0.6148656010627747,0.6152456998825073,4.5029261112213135,2.7567811012268066,,,,,,
8512520000.0,91.89,2.1500000953674316,6529777152.0,3525.1678089607144,57.0,0.011151129379868507,950272.0,844.6767129898071,0.008740555495023727,0.09893798828125,2.527160406112671,-0.023050280287861824,0.03831794485449791,-0.025271601974964142,0.002221321454271674,0.0,0.01471644639968872,0.2854108214378357,0.7480485805842483,0.6110672950744629,0.4621291756629944,0.6257836818695068,0.5686067342758179,4.647722005844116,2.7622225284576416,,,,,,
8512520000.0,103.58,2.240000009536743,6529777152.0,3546.9887315666283,58.0,0.012047521770000458,966656.0,849.2958424091339,0.0060912324115633965,0.0736083984375,2.496549606323242,-0.02299334853887558,0.043957218527793884,-0.024965493008494377,0.001972145400941372,0.0,0.010800017043948174,0.28602489829063416,0.8051721450497702,0.7366309762001038,0.5788677334785461,0.7474310398101807,0.648004949092865,4.619129419326782,2.8331401348114014,,,,,,
8512520000.0,115.98,2.8399999141693115,6529777152.0,3456.325719534334,59.0,0.012114780955016613,983040.0,854.0361363887787,0.006429972127079964,0.068359375,2.503833293914795,-0.021692562848329544,0.049283429980278015,-0.025038331747055054,0.003345770062878728,0.0,0.018610913306474686,0.3102961778640747,0.8069332897220802,0.768536388874054,0.6250292062759399,0.7871473431587219,0.7061918377876282,4.740293979644775,2.770089864730835,,,,,,
8512520000.0,128.52,3.4200000762939453,6529777152.0,3539.404801492577,60.0,0.013637159019708633,999424.0,858.6651632785797,0.021913763135671616,0.20977783203125,2.4850573539733887,-0.009842661209404469,0.05581807717680931,-0.024850573390722275,0.015007912181317806,0.0,0.048211243003606796,0.33293142914772034,0.7922324715758249,0.8033941984176636,0.6457001566886902,0.8516054749488831,0.7304087281227112,4.629026889801025,2.762532949447632,,,,,,
8512520000.0,110.47,2.759999990463257,6529777152.0,3511.433309622121,61.0,0.01330656185746193,1015808.0,863.3310642242432,0.006993425078690052,0.08447265625,2.5142197608947754,-0.022035710513591766,0.06491637229919434,-0.02514219470322132,0.0031064851209521294,0.0,0.038275185972452164,0.33850574493408203,0.7800662802065561,0.7727088928222656,0.5967546105384827,0.8109840154647827,0.7218054533004761,4.665900945663452,2.781419515609741,,,,,,
8512520000.0,101.07,2.6500000953674316,6529777152.0,3375.12472565852,62.0,0.012612499296665192,1032192.0,868.1854033470154,0.008344616740942001,0.10125732421875,2.4624698162078857,-0.02461567521095276,0.03663906455039978,-0.024624694138765335,9.024515748023987e-06,0.0,0.05660432577133179,0.26962873339653015,0.8198226482653463,0.5966442227363586,0.5458028316497803,0.6532485485076904,0.6352080702781677,4.854339122772217,2.837937593460083,,,,,,
8512720000.0,118.79,3.2799999713897705,6529777152.0,3510.1105302994006,63.0,0.013782897964119911,1048576.0,872.8530626296997,0.00679932301864028,0.07086181640625,2.4940011501312256,-0.021868115290999413,0.03661051020026207,-0.024940012022852898,0.0030718976631760597,0.0,0.07504242658615112,0.2664642930030823,0.7664747421632714,0.6091417670249939,0.4472179114818573,0.684184193611145,0.551406741142273,4.667659282684326,2.8467319011688232,,,,,,
,,,,,,,,,,,,,,,,,,,,,,,,,,0.02735924907028675,0.12981051206588745,0.11634004861116409,0.02735924907028675,0.12981051206588745,0.11634004861116409
,,,,,,,,,,,,,,,,,,,,,,,,,,0.008985110558569431,0.09805603325366974,0.09732358157634735,0.008985110558569431,0.09805603325366974,0.09732358157634735
,,,,,,,,,,,,,,,,,,,,,,,,,,0.007728529628366232,0.09099613130092621,0.091395303606987,0.007728529628366232,0.09099613130092621,0.091395303606987
,,,,,,,,,,,,,,,,,,,,,,,,,,0.006483989302068949,0.08693066984415054,0.08746255934238434,0.006483989302068949,0.08693066984415054,0.08746255934238434
,,,,,,,,,,,,,,,,,,,,,,,,,,0.006656995974481106,0.08541116118431091,0.08616311103105545,0.006656995974481106,0.08541116118431091,0.08616311103105545
,,,,,,,,,,,,,,,,,,,,,,,,,,0.005862135905772448,0.08365362882614136,0.08435950428247452,0.005862135905772448,0.08365362882614136,0.08435950428247452
8512984000.0,124.76,3.2699999809265137,6327188480.0,28.1174747021856,64.0,0.013215390034019947,1064960.0,1455.5511951446533,0.004060392268002033,0.046630859375,2.4661200046539307,-0.025159254670143127,0.05160379037261009,-0.024661200121045113,-0.0004980512894690037,0.0,0.11269289255142212,0.3123685121536255,0.7589237662389884,0.6086021065711975,0.5513771176338196,0.7212949991226196,0.6361947655677795,582.6981325149536,3.0800247192382812,,,,,,
8512984000.0,125.34,3.309999942779541,6529777152.0,3504.1988360382466,65.0,0.01337562408298254,1081344.0,1460.2267289161682,0.006454030517488718,0.0811767578125,2.4265077114105225,-0.023282475769519806,0.06423317641019821,-0.024265076965093613,0.0009826011955738068,0.0,0.10290095955133438,0.36249107122421265,0.7591096909968118,0.7282537221908569,0.6327461004257202,0.8311547040939331,0.7385632395744324,4.675533771514893,2.8918728828430176,,,,,,
8512984000.0,137.41,3.5399999618530273,6529777152.0,3562.800262877765,66.0,0.01388261467218399,1097728.0,1464.8253588676453,0.004907186143100262,0.05511474609375,2.411872386932373,-0.022512655705213547,0.06545871496200562,-0.02411872334778309,0.0016060690395534039,0.0,0.07305446267127991,0.3577885329723358,0.7946723644406125,0.995109498500824,0.6776113510131836,1.0681639909744263,0.7895920872688293,4.598629951477051,2.753042697906494,,,,,,
8512984000.0,138.18,4.889999866485596,6529777152.0,3644.645654742613,67.0,0.017458148300647736,1114112.0,1469.3207204341888,0.0039043899159878492,0.0438232421875,2.4163973331451416,-0.022918250411748886,0.09246591478586197,-0.024163972586393356,0.0012457193806767464,0.0,0.15529590845108032,0.4344050884246826,0.7800312709401485,1.0480694770812988,0.738097608089447,1.203365445137024,0.9262206554412842,4.495361566543579,2.7517971992492676,,,,,,
8512984000.0,139.88,3.990000009536743,6529777152.0,3598.995182222253,68.0,0.014745131134986877,1130496.0,1473.8731021881104,0.005649496801197529,0.0653076171875,2.4095230102539062,-0.022912781685590744,0.08180461823940277,-0.02409522794187069,0.0011824481189250946,0.0,0.08621719479560852,0.4011673033237457,0.7768953152203666,1.1108267307281494,0.7453217506408691,1.1970438957214355,0.849319577217102,4.552381753921509,2.756603717803955,,,,,,
8512984000.0,154.39,5.110000133514404,6529777152.0,3599.8563994194715,69.0,0.017380138859152794,1146880.0,1478.4243948459625,0.007505091372877359,0.08575439453125,2.3891334533691406,-0.02226293832063675,0.08783505856990814,-0.023891335353255272,0.0016283970326185226,0.0,0.054006509482860565,0.4343760013580322,0.7905674654430608,1.3938148021697998,0.86953204870224,1.4478213787078857,0.949169397354126,4.551292657852173,2.745471715927124,,,,,,
8512984000.0,138.78,4.210000038146973,6529777152.0,3653.055956397745,70.0,0.015206215903162956,1163264.0,1482.9094069004059,0.010044313967227936,0.09893798828125,2.369494915008545,-0.017954392358660698,0.07128958404064178,-0.023694947361946106,0.005740555934607983,0.0,0.07534857094287872,0.386069118976593,0.8381543604780473,1.3462680578231812,0.8427333235740662,1.421616554260254,0.9596536159515381,4.485012054443359,2.7584309577941895,,,,,,
8512984000.0,162.78,5.110000133514404,6529777152.0,3554.426522430609,71.0,0.01524929516017437,1179648.0,1487.5188705921173,0.005655219778418541,0.0670166015625,2.3745133876800537,-0.02122114785015583,0.08308744430541992,-0.023745130747556686,0.0025239847600460052,0.0,0.060910310596227646,0.41389909386634827,0.8224674052196761,1.4238388538360596,0.8413760662078857,1.4847493171691895,0.982325553894043,4.609463691711426,2.7586967945098877,,,,,,
8512984000.0,147.49,4.639999866485596,6529777152.0,3579.2974989728714,72.0,0.01778588816523552,1196032.0,1492.0963051319122,0.004506340250372887,0.04998779296875,2.3533010482788086,-0.02269112318754196,0.09500201791524887,-0.023533010855317116,0.0008418876677751541,0.0,0.10652324557304382,0.4133276045322418,0.8498349516553997,1.2113637924194336,0.9131265878677368,1.3178870677947998,1.0666204690933228,4.577434539794922,2.767348051071167,,,,,,
8512984000.0,158.47,5.380000114440918,6529777152.0,3646.4912461787694,73.0,0.016193382441997528,1212416.0,1496.5893914699554,0.0041448273696005344,0.0445556640625,2.333657741546631,-0.022966627031564713,0.0959271490573883,-0.02333657629787922,0.0003699534572660923,0.0,0.11598874628543854,0.42404377460479736,0.8364333742279789,1.338571548461914,0.906758189201355,1.4545601606369019,1.0484877824783325,4.493086338043213,2.750643730163574,,,,,,
8512984000.0,155.63,4.539999961853027,6529777152.0,3599.156911813961,74.0,0.015453329309821129,1228800.0,1501.141568660736,0.0028193332254886627,0.02801513671875,2.329756259918213,-0.022895362228155136,0.10558457672595978,-0.023297561332583427,0.0004021981731057167,0.0,0.04597371071577072,0.43655210733413696,0.8383721230072678,1.5430387258529663,0.9729814529418945,1.5890123844146729,1.0858702659606934,4.55217719078064,2.759221315383911,,,,,,
8512984000.0,169.83,5.190000057220459,6529777152.0,3685.1913509959663,75.0,0.016167333349585533,1245184.0,1505.5874707698822,0.00465607363730669,0.0531005859375,2.3519110679626465,-0.021272648125886917,0.11196049302816391,-0.023519109934568405,0.002246459014713764,0.0,0.10527688264846802,0.44785594940185547,0.8534146991197769,1.6364312171936035,1.0309605598449707,1.7417081594467163,1.1697502136230469,4.445902109146118,2.747129201889038,,,,,,
8512984000.0,192.59,7.179999828338623,6529777152.0,3662.4765882982024,76.0,0.018148131668567657,1261568.0,1510.0609464645386,0.0049773347564041615,0.0576171875,2.308614492416382,-0.021439433097839355,0.14086410403251648,-0.023086141794919968,0.0016467105597257614,0.0,0.11790885031223297,0.5162562131881714,0.8265239010438323,1.4318628311157227,1.0569536685943604,1.549771785736084,1.2394969463348389,4.473475694656372,2.7607738971710205,,,,,,
8512984000.0,188.44,6.0,6529777152.0,3628.396981121157,77.0,0.016204075887799263,1277952.0,1514.5764391422272,0.006094891112297773,0.06939697265625,2.2801432609558105,-0.01955370418727398,0.11886534094810486,-0.022801430895924568,0.0032477229833602905,0.0,0.10417605191469193,0.4815327823162079,0.8463636134696892,1.3096659183502197,1.0114102363586426,1.413841962814331,1.2285102605819702,4.515492677688599,2.760216474533081,,,,,,
8512984000.0,205.74,6.909999847412109,6529777152.0,3571.5133023512244,78.0,0.01764717325568199,1294336.0,1519.1638503074646,0.004774902947247028,0.04913330078125,2.3133676052093506,-0.02183777093887329,0.1508256047964096,-0.023133674636483192,0.0012959009036421776,0.0,0.1698157638311386,0.5291377305984497,0.8009403940187857,1.4292106628417969,1.0616824626922607,1.5990264415740967,1.1859796047210693,4.587411165237427,2.75124192237854,,,,,,
8512984000.0,229.68,8.729999542236328,6529777152.0,3663.6600507030525,79.0,0.017513364553451538,1310720.0,1523.635880947113,0.004126531537622213,0.0445556640625,2.3017570972442627,-0.020733924582600594,0.1378471553325653,-0.02301757223904133,0.0022836457937955856,0.0,0.16536960005760193,0.5394769906997681,0.8504681124675784,1.566217303276062,1.1507806777954102,1.7315869331359863,1.3951022624969482,4.4720306396484375,2.759531021118164,,,,,,
8512984000.0,227.06,9.239999771118164,6529777152.0,3562.0502915362354,80.0,0.02036048099398613,1327104.0,1528.2354791164398,0.004076164215803146,0.04052734375,2.3218376636505127,-0.019202537834644318,0.22912319004535675,-0.023218374699354172,0.004015838727355003,0.0,0.18306495249271393,0.5881208777427673,0.8484001062454014,1.6621479988098145,1.3361790180206299,1.8452129364013672,1.5104875564575195,4.599598169326782,2.7823872566223145,,,,,,
8512984000.0,224.45,8.149999618530273,6529777152.0,3521.5923753459806,81.0,0.01870565488934517,1343488.0,1532.8879199028015,0.007886989042162895,0.08575439453125,2.271908760070801,-0.02094569057226181,0.20884667336940765,-0.022719085216522217,0.0017733955755829811,0.0,0.16103968024253845,0.5996272563934326,0.8095154714784117,1.8544154167175293,1.1959056854248047,2.0154550075531006,1.373888373374939,4.652440786361694,2.756178379058838,,,,,,
8512984000.0,248.44,9.600000381469727,6529777152.0,3517.553824485934,82.0,0.019620776176452637,1359872.0,1537.5457022190094,0.004503082949668169,0.05059814453125,2.2848377227783203,-0.020622674375772476,0.16259455680847168,-0.022848378866910934,0.002225702628493309,0.0,0.13146871328353882,0.5496504306793213,0.8351015841151121,1.9813392162322998,1.1719591617584229,2.1128077507019043,1.3535621166229248,4.657782316207886,2.7643280029296875,,,,,,
8512984000.0,230.74,8.720000267028809,6529777152.0,3373.2741161483277,83.0,0.01726669818162918,1376256.0,1542.4027044773102,0.007525120861828327,0.0833740234375,2.231609344482422,-0.019163701683282852,0.15874704718589783,-0.022316094487905502,0.003152390941977501,0.0,0.11756093800067902,0.542090892791748,0.8443241293852937,1.90963876247406,1.173488974571228,2.0271997451782227,1.37391996383667,4.857002258300781,2.88097882270813,,,,,,
8512984000.0,233.06,8.829999923706055,6529777152.0,3560.74814914301,84.0,0.01789313741028309,1392640.0,1547.0039846897125,0.007296102121472359,0.08416748046875,2.2836029529571533,-0.01865660771727562,0.19990631937980652,-0.022836027666926384,0.004179419483989477,0.0,0.17742043733596802,0.6044708490371704,0.8379553516374455,2.0039844512939453,1.2508481740951538,2.1814048290252686,1.5016130208969116,4.601280212402344,2.7643613815307617,,,,,,
8512984000.0,254.9,11.069999694824219,6529777152.0,3474.581299450717,85.0,0.02212965115904808,1409024.0,1551.7193729877472,0.0055825961753726006,0.05621337890625,2.2469840049743652,-0.020678307861089706,0.2336183339357376,-0.022469837218523026,0.0017915330827236176,0.0,0.25686824321746826,0.6723151803016663,0.8532538461409294,2.081876516342163,1.5125335454940796,2.338744878768921,1.7550504207611084,4.715388298034668,2.757580518722534,,,,,,
8512984000.0,279.29,12.859999656677246,6529777152.0,3511.7602569655082,86.0,0.024362221360206604,1425408.0,1556.3848395347595,0.003602147102355957,0.0369873046875,2.281859874725342,-0.021517671644687653,0.2625136971473694,-0.02281860075891018,0.0013009291142225266,0.0,0.21534711122512817,0.7051599025726318,0.8757860166471997,2.294384717941284,1.7788697481155396,2.5097317695617676,2.000793695449829,4.665466547012329,2.7638797760009766,,,,,,
8512984000.0,258.17,10.890000343322754,6529777152.0,3406.803929851628,87.0,0.022950006648898125,1441792.0,1561.194039106369,0.004707456566393375,0.0482177734375,2.2349495887756348,-0.021631363779306412,0.24726763367652893,-0.022349495440721512,0.0007181316614151001,0.0,0.20637410879135132,0.6994856595993042,0.8287101979319694,2.150907039642334,1.4405279159545898,2.35728120803833,1.6901023387908936,4.809199571609497,2.769895553588867,,,,,,
8512984000.0,263.62,11.970000267028809,6529777152.0,3565.4651118242555,88.0,0.023847468197345734,1458176.0,1565.7892320156097,0.00513072544708848,0.05072021484375,2.2432053089141846,-0.019175589084625244,0.2544560730457306,-0.022432053461670876,0.003256468567997217,0.0,0.2694239318370819,0.6966822147369385,0.862113138067689,2.436953544616699,1.689062476158142,2.7063779830932617,1.8761749267578125,4.595192909240723,2.7648203372955322,,,,,,
8512984000.0,298.39,15.289999961853027,6529777152.0,3571.426619928712,89.0,0.02504318580031395,1474560.0,1570.3767545223236,0.004291365388780832,0.04351806640625,2.2743148803710938,-0.021834779530763626,0.2793574333190918,-0.022743146866559982,0.0009083682671189308,0.0,0.20876604318618774,0.7234862446784973,0.8575811342924979,2.7371225357055664,1.7514431476593018,2.9458882808685303,1.9171075820922852,4.587522506713867,2.7540552616119385,,,,,,
8512984000.0,302.4,14.699999809265137,6529777152.0,3483.299158319636,90.0,0.02161882258951664,1490944.0,1575.0803413391113,0.006232073996216059,0.05523681640625,2.2474586963653564,-0.02024552784860134,0.35325726866722107,-0.022474586963653564,0.002229059115052223,0.0,0.21690434217453003,0.8135507106781006,0.7793930643962341,2.782278537750244,1.5982892513275146,2.999182939529419,1.7321083545684814,4.70358681678772,2.7654922008514404,,,,,,
8512984000.0,311.41,14.6899995803833,6529777152.0,3528.2026415410724,91.0,0.026021486148238182,1507328.0,1579.724065542221,0.005214976612478495,0.0572509765625,2.256481170654297,-0.020299972966313362,0.25698187947273254,-0.022564811632037163,0.0022648400627076626,0.0,0.21364663541316986,0.6944414973258972,0.8739120069561943,3.0467920303344727,1.7509515285491943,3.2604384422302246,1.9556844234466553,4.643724203109741,2.7640795707702637,,,,,,
8512984000.0,311.2,15.380000114440918,6529777152.0,3555.965077797419,92.0,0.022527426481246948,1523712.0,1584.3315348625183,0.0072600566782057285,0.07354736328125,2.2687244415283203,-0.0195261612534523,0.2306172400712967,-0.022687245160341263,0.003161088563501835,0.0,0.2227809727191925,0.6668533682823181,0.8445022212366726,3.008423328399658,1.4737622737884521,3.2312042713165283,1.6910957098007202,4.607469320297241,2.7681169509887695,,,,,,
8512984000.0,317.86,17.100000381469727,6529777152.0,3497.463263047121,93.0,0.03051813319325447,1540096.0,1589.0160729885101,0.006024316884577274,0.060302734375,2.2245004177093506,-0.01928858831524849,0.32491394877433777,-0.022245004773139954,0.0029564164578914642,0.0,0.2757219076156616,0.783964216709137,0.8691816103523615,3.0646181106567383,1.9641742706298828,3.3403401374816895,2.167513847351074,4.684538125991821,2.807936191558838,,,,,,
8512984000.0,314.96,16.309999465942383,6529777152.0,3473.117087492185,94.0,0.022011462599039078,1556480.0,1593.7334492206573,0.003662188770249486,0.03607177734375,2.2493605613708496,-0.02052246779203415,0.30800095200538635,-0.022493604570627213,0.001971137709915638,0.0,0.2418745458126068,0.7263578176498413,0.8515944555826768,3.1066789627075195,1.7023624181747437,3.3485536575317383,1.8854955434799194,4.717376232147217,2.8035728931427,,,,,,
8513140000.0,308.82,15.0600004196167,6529777152.0,3377.310294711884,95.0,0.025067992508411407,1572864.0,1598.5846469402313,0.0057203276082873344,0.0535888671875,2.2274956703186035,-0.01974606141448021,0.2718474566936493,-0.022274957969784737,0.0025288984179496765,0.0,0.17223003506660461,0.7159172892570496,0.8603300208467127,3.147407293319702,1.6946666240692139,3.3196372985839844,1.9156285524368286,4.851197719573975,2.9379851818084717,,,,,,
,,,,,,,,,,,,,,,,,,,,,,,,,,0.0407811664044857,0.542117714881897,0.5013443827629089,0.0407811664044857,0.542117714881897,0.5013443827629089
,,,,,,,,,,,,,,,,,,,,,,,,,,0.02207997627556324,0.41857433319091797,0.39558523893356323,0.02207997627556324,0.41857433319091797,0.39558523893356323
,,,,,,,,,,,,,,,,,,,,,,,,,,0.018522312864661217,0.37232738733291626,0.3595660328865051,0.018522312864661217,0.37232738733291626,0.3595660328865051
,,,,,,,,,,,,,,,,,,,,,,,,,,0.01799553632736206,0.35552236437797546,0.35145968198776245,0.01799553632736206,0.35552236437797546,0.35145968198776245
,,,,,,,,,,,,,,,,,,,,,,,,,,0.016641568392515182,0.34339842200279236,0.3372345268726349,0.016641568392515182,0.34339842200279236,0.3372345268726349
,,,,,,,,,,,,,,,,,,,,,,,,,,0.015688063576817513,0.3334539830684662,0.33017265796661377,0.015688063576817513,0.3334539830684662,0.33017265796661377
8513140000.0,307.31,15.260000228881836,6327188480.0,28.219895214246883,96.0,0.025038819760084152,1589248.0,2179.1679508686066,0.0029237307608127594,0.0267333984375,2.2789149284362793,-0.02066916599869728,0.25058043003082275,-0.02278914675116539,0.0021199826151132584,0.0,0.33458563685417175,0.6962997317314148,0.8844553532817738,2.5078794956207275,1.785712480545044,2.8424651622772217,2.0484306812286377,580.5833039283752,2.790872573852539,,,,,,
8513140000.0,318.25,15.859999656677246,6529777152.0,3422.372643440439,97.0,0.022325623780488968,1605632.0,2183.955272912979,0.003227111417800188,0.03485107421875,2.2410926818847656,-0.021271362900733948,0.266186386346817,-0.02241092547774315,0.0011395644396543503,0.0,0.24572229385375977,0.7297368049621582,0.8667074724244451,2.923563003540039,1.8743690252304077,3.169285297393799,1.9987727403640747,4.787322044372559,2.8622634410858154,,,,,,
8513140000.0,331.19,16.40999984741211,6529777152.0,3556.8746746472666,98.0,0.025432951748371124,1622016.0,2188.5615639686584,0.004801756702363491,0.0494384765625,2.2511937618255615,-0.020186660811305046,0.32455772161483765,-0.022511936724185944,0.002325272187590599,0.0,0.20810136198997498,0.7874830961227417,0.8749741369582358,3.238628387451172,2.14373517036438,3.4467296600341797,2.2271087169647217,4.606291055679321,2.7542572021484375,,,,,,
8513140000.0,339.93,16.360000610351562,6529777152.0,3625.945650396554,99.0,0.025047801434993744,1638400.0,2193.080109357834,0.006168614141643047,0.06640625,2.2306618690490723,-0.021487437188625336,0.3233095109462738,-0.022306617349386215,0.0008191745728254318,0.0,0.2731264531612396,0.7906628847122192,0.8613614542388702,3.6374988555908203,1.918851613998413,3.9106249809265137,2.1234853267669678,4.518545389175415,2.759526491165161,,,,,,
8513140000.0,313.31,15.229999542236328,6529777152.0,3551.688560436741,100.0,0.022759150713682175,1654784.0,2197.693126440048,0.004417866468429565,0.04248046875,2.224592685699463,-0.020842265337705612,0.2813306152820587,-0.022245926782488823,0.0014036595821380615,0.0,0.17918457090854645,0.7164038419723511,0.8898108026983839,3.557471752166748,2.021639585494995,3.7366561889648438,2.1581838130950928,4.6130170822143555,2.7471766471862793,,,,,,
8513140000.0,323.51,16.8700008392334,6529777152.0,3589.7197383329303,101.0,0.029166005551815033,1671168.0,2202.257271051407,0.00249891122803092,0.02410888671875,2.2069475650787354,-0.021954433992505074,0.32307523488998413,-0.022069474682211876,0.00011504068970680237,0.0,0.27499523758888245,0.7617706656455994,0.8872027868942369,4.086954116821289,2.173430919647217,4.361949920654297,2.2681682109832764,4.564144611358643,2.7458794116973877,,,,,,
8513140000.0,337.01,18.489999771118164,6529777152.0,3604.6838552786044,102.0,0.026818599551916122,1687552.0,2206.8024685382843,0.002514105988666415,0.0242919921875,2.2177648544311523,-0.022126585245132446,0.26006975769996643,-0.022177647799253464,5.106627941131592e-05,0.0,0.24586516618728638,0.6843722462654114,0.8929843843970603,4.131165027618408,1.990965723991394,4.377029895782471,2.092033863067627,4.545197486877441,2.7451717853546143,,,,,,
8513140000.0,357.81,20.219999313354492,6529777152.0,3620.5414360740388,103.0,0.030987458303570747,1703936.0,2211.327758550644,0.005364357493817806,0.05059814453125,2.2093417644500732,-0.02022913657128811,0.31771522760391235,-0.02209341712296009,0.0018642810173332691,0.0,0.23458030819892883,0.7810539603233337,0.8716082188235778,4.532745838165283,2.1183745861053467,4.767326354980469,2.179779529571533,4.525290012359619,2.752634286880493,,,,,,
8513140000.0,360.6,20.790000915527344,6529777152.0,3585.8234255508874,104.0,0.026602573692798615,1720320.0,2215.8968625068665,0.0044012609869241714,0.03717041015625,2.180462598800659,-0.019055599346756935,0.30532509088516235,-0.021804627031087875,0.002749025821685791,0.0,0.2388865053653717,0.7626301646232605,0.8799331953159756,4.957322120666504,2.0859768390655518,5.196208953857422,2.200911283493042,4.569103956222534,2.757505416870117,,,,,,
8513140000.0,354.33,20.389999389648438,6529777152.0,3536.7742004150596,105.0,0.02636539749801159,1736704.0,2220.5293323993683,0.004660856444388628,0.04656982421875,2.167210817337036,-0.02027302421629429,0.29274407029151917,-0.02167210727930069,0.0013990814331918955,0.0,0.1913370043039322,0.7425743341445923,0.8792980836273482,4.687755107879639,2.033933401107788,4.879092216491699,2.137385845184326,4.632469892501831,2.739670515060425,,,,,,
8513140000.0,361.82,19.600000381469727,6529777152.0,3614.3003435978244,106.0,0.02648351527750492,1753088.0,2225.062436580658,0.004847054369747639,0.051025390625,2.137270927429199,-0.01988086849451065,0.31832143664360046,-0.021372709423303604,0.001491837203502655,0.0,0.1527729332447052,0.7819798588752747,0.8716511236821034,4.874899864196777,2.091348648071289,5.02767276763916,2.182727098464966,4.533104181289673,2.745659589767456,,,,,,
8513140000.0,372.18,19.899999618530273,6529777152.0,3598.1920275249126,107.0,0.0265713632106781,1769472.0,2229.6158344745636,0.004075272474437952,0.04168701171875,2.1539556980133057,-0.020816560834646225,0.26677438616752625,-0.021539557725191116,0.0007229968905448914,0.0,0.22207030653953552,0.7113997936248779,0.8623881942449114,5.008866310119629,1.8391190767288208,5.230936527252197,1.9177229404449463,4.55339789390564,2.738621234893799,,,,,,
8513140000.0,377.1,20.100000381469727,6529777152.0,3576.5173790298322,108.0,0.03010758012533188,1785856.0,2234.196827173233,0.0027048280462622643,0.02716064453125,2.17185115814209,-0.02002306468784809,0.3040344715118408,-0.02171850949525833,0.0016954448074102402,0.0,0.20854118466377258,0.7456517219543457,0.844511777524407,5.254977226257324,1.845055341720581,5.4635186195373535,1.890981674194336,4.580992698669434,2.747598648071289,,,,,,
8513140000.0,375.09,21.229999542236328,6529777152.0,3645.041575166427,109.0,0.02659599483013153,1802240.0,2238.6917004585266,0.0040773325599730015,0.0404052734375,2.1794612407684326,-0.019550060853362083,0.25418031215667725,-0.02179461345076561,0.0022445525974035263,0.0,0.18070673942565918,0.6965935230255127,0.8709752685291535,4.946684837341309,1.7685601711273193,5.127391815185547,1.9392900466918945,4.494873285293579,2.7683119773864746,,,,,,
8513140000.0,366.23,20.770000457763672,6529777152.0,3573.630996180627,110.0,0.02578592300415039,1818624.0,2243.276393175125,0.006395377218723297,0.0736083984375,2.1788206100463867,-0.018374063074588776,0.24753013253211975,-0.021788205951452255,0.0034141410142183304,0.0,0.19676318764686584,0.6696497201919556,0.8813694223971787,5.144922256469727,1.833209753036499,5.3416852951049805,1.9442375898361206,4.584692716598511,2.7594218254089355,,,,,,
8513140000.0,389.57,22.399999618530273,6529777152.0,3614.7201201156654,111.0,0.030530061572790146,1835008.0,2247.808970928192,0.0047374302521348,0.050048828125,2.1668055057525635,-0.019611719995737076,0.2733270227909088,-0.021668054163455963,0.0020563341677188873,0.0,0.1981215626001358,0.7235643863677979,0.8610570257662258,5.595922470092773,1.9010728597640991,5.794044017791748,1.9411497116088867,4.532577753067017,2.7531700134277344,,,,,,
8513140000.0,395.95,22.860000610351562,6529777152.0,3482.2670955684875,112.0,0.027349313721060753,1851392.0,2252.513951778412,0.002363447332754731,0.019775390625,2.1549527645111084,-0.020582349970936775,0.22499893605709076,-0.02154952846467495,0.0009671850129961967,0.0,0.22749318182468414,0.6399662494659424,0.8851200614904008,5.8026533126831055,1.8454995155334473,6.030146598815918,1.8881431818008423,4.704980850219727,2.7565958499908447,,,,,,
8513140000.0,390.77,22.31999969482422,6529777152.0,3681.1176849750277,113.0,0.027681102976202965,1867776.0,2256.9647738933563,0.004002126399427652,0.04595947265625,2.155977249145508,-0.019532039761543274,0.24604812264442444,-0.02155977301299572,0.002027735114097595,0.0,0.1307717263698578,0.6842998266220093,0.8701916997546266,5.690659523010254,1.802507758140564,5.8214311599731445,1.899307370185852,4.450822114944458,2.7496871948242188,,,,,,
8513140000.0,383.45,22.15999984741211,6529777152.0,3526.343983004042,114.0,0.02638937532901764,1884160.0,2261.610945701599,0.004434878006577492,0.04217529296875,2.177504301071167,-0.01734769344329834,0.2573225498199463,-0.02177504263818264,0.0044273491948843,0.0,0.17128753662109375,0.6781614422798157,0.8475583135056859,5.696342468261719,1.675058364868164,5.8676300048828125,1.736928105354309,4.646171808242798,2.7734413146972656,,,,,,
8513140000.0,375.36,20.90999984741211,6529777152.0,3592.0646722924307,115.0,0.03039747290313244,1900544.0,2266.1721107959747,0.002761350478976965,0.0245361328125,2.1807100772857666,-0.01937703974545002,0.22331592440605164,-0.021807098761200905,0.002430059015750885,0.0,0.1560802310705185,0.6626689434051514,0.8690795461694826,6.029853820800781,1.7517714500427246,6.185934066772461,1.831441044807434,4.56116509437561,2.773524284362793,,,,,,
8513140000.0,383.38,21.950000762939453,6529777152.0,3528.9755769099916,116.0,0.028343183919787407,1916928.0,2270.814817905426,0.0024452642537653446,0.02117919921875,2.170793056488037,-0.02069827727973461,0.22600840032100677,-0.02170792780816555,0.001009652391076088,0.0,0.14612382650375366,0.6624771356582642,0.8636015835936026,6.159540176391602,1.684004783630371,6.3056640625,1.7937678098678589,4.642707109451294,2.752957344055176,,,,,,
8513140000.0,388.23,22.15999984741211,6529777152.0,3525.414121884324,117.0,0.027946799993515015,1933312.0,2275.4622151851654,0.0022781810257583857,0.021728515625,2.193824052810669,-0.02165435254573822,0.22791524231433868,-0.02193824201822281,0.0002838871441781521,0.0,0.17833088338375092,0.6637654304504395,0.8493800519972149,6.183222770690918,1.6482701301574707,6.361553192138672,1.710304856300354,4.64739727973938,2.7542223930358887,,,,,,
8513140000.0,382.77,22.1200008392334,6529777152.0,3542.439920261503,118.0,0.029621677473187447,1949696.0,2280.087275981903,0.0027316641062498093,0.02520751953125,2.213550090789795,-0.021488986909389496,0.2370329648256302,-0.022135501727461815,0.0006465143524110317,0.0,0.16397787630558014,0.6445178985595703,0.8598662671152869,6.150043487548828,1.6094944477081299,6.314021110534668,1.7217230796813965,4.625060796737671,2.759631872177124,,,,,,
8513140000.0,389.35,23.360000610351562,6529777152.0,3678.291397940687,119.0,0.03127092868089676,1966080.0,2284.541517972946,0.002817313652485609,0.02740478515625,2.2177467346191406,-0.021240822970867157,0.19039499759674072,-0.02217746712267399,0.0009366422891616821,0.0,0.1666627824306488,0.5857802033424377,0.8786678795898001,6.112543106079102,1.5948268175125122,6.279206275939941,1.6816941499710083,4.454241991043091,2.7627856731414795,,,,,,
8513140000.0,393.56,22.530000686645508,6529777152.0,3649.5427036126553,120.0,0.026602674275636673,1982464.0,2289.0308475494385,0.003858845215290785,0.04058837890625,2.1790692806243896,-0.022069690749049187,0.21859773993492126,-0.02179069258272648,-0.00027899909764528275,0.0,0.12508845329284668,0.649160623550415,0.8666285092515276,6.030277729034424,1.672179102897644,6.155365943908691,1.7775448560714722,4.48932957649231,2.7558329105377197,,,,,,
8513140000.0,399.02,22.649999618530273,6529777152.0,3577.6565492281898,121.0,0.027793794870376587,1998848.0,2293.610381603241,0.004473928827792406,0.04962158203125,2.18532133102417,-0.019116584211587906,0.18832124769687653,-0.021853210404515266,0.002736627124249935,0.0,0.2031080424785614,0.596760630607605,0.8812599810191835,6.244424819946289,1.6645609140396118,6.447532653808594,1.7318129539489746,4.57953405380249,2.7586231231689453,,,,,,
8513140000.0,396.86,22.43000030517578,6529777152.0,3534.2398413488636,122.0,0.029440511018037796,2015232.0,2298.2461733818054,0.004405795596539974,0.0367431640625,2.1819515228271484,-0.020969823002815247,0.2212083488702774,-0.02181951515376568,0.0008496874943375587,0.0,0.11166494339704514,0.6441595554351807,0.8578261172392065,6.187766075134277,1.635654091835022,6.299430847167969,1.708376169204712,4.635791778564453,2.8639087677001953,,,,,,
8513140000.0,380.03,22.18000030517578,6529777152.0,3552.8725822238794,123.0,0.029834115877747536,2031616.0,2302.8576531410217,0.003943443764001131,0.04083251953125,2.1994330883026123,-0.02026611939072609,0.18853937089443207,-0.0219943318516016,0.001728215254843235,0.0,0.16125045716762543,0.6012318730354309,0.8805894435965094,6.275888442993164,1.600754737854004,6.43713903427124,1.7398861646652222,4.611479759216309,2.764965772628784,,,,,,
8513140000.0,369.79,21.940000534057617,6529777152.0,3445.187301199598,124.0,0.029727933928370476,2048000.0,2307.613272666931,0.004102153703570366,0.04095458984375,2.179190158843994,-0.02196265012025833,0.21426326036453247,-0.021791905164718628,-0.0001707468181848526,0.0,0.1291228085756302,0.6491801738739014,0.8544448570366557,6.425070285797119,1.549172043800354,6.554193496704102,1.7015775442123413,4.755619525909424,2.75614595413208,,,,,,
8513140000.0,382.82,23.540000915527344,6529777152.0,3606.4765052430757,125.0,0.031987112015485764,2064384.0,2312.156210899353,0.005067408084869385,0.05029296875,2.203885078430176,-0.020175587385892868,0.18456332385540009,-0.02203885279595852,0.0018632691353559494,0.0,0.17503662407398224,0.5902079343795776,0.8905177969197344,6.261180400848389,1.7019076347351074,6.436217308044434,1.7837469577789307,4.542938232421875,2.752896547317505,,,,,,
8513140000.0,384.52,23.690000534057617,6529777152.0,3606.7165181106625,126.0,0.027689503505825996,2080768.0,2316.6988468170166,0.00231144274584949,0.01824951171875,2.231173276901245,-0.020752565935254097,0.1962772011756897,-0.022311732172966003,0.001559162512421608,0.0,0.12395493686199188,0.6101296544075012,0.8949052402277738,6.319461822509766,1.7451682090759277,6.443416595458984,1.8820515871047974,4.542635917663574,2.7558786869049072,,,,,,
8513140000.0,390.13,23.959999084472656,6529777152.0,3455.968689248516,127.0,0.03215048462152481,2097152.0,2321.439630508423,0.0029731770046055317,0.03009033203125,2.1992621421813965,-0.02075476199388504,0.15121300518512726,-0.021992621943354607,0.0012378599494695663,0.0,0.21899878978729248,0.5277538895606995,0.9106687869237228,6.47145414352417,1.722820520401001,6.69045352935791,1.7657550573349,4.74078369140625,2.764061450958252,,,,,,
,,,,,,,,,,,,,,,,,,,,,,,,,,0.055354516953229904,1.257691740989685,1.0141223669052124,0.055354516953229904,1.257691740989685,1.0141223669052124
,,,,,,,,,,,,,,,,,,,,,,,,,,0.027315853163599968,0.9102046489715576,0.8540272116661072,0.027315853163599968,0.9102046489715576,0.8540272116661072
,,,,,,,,,,,,,,,,,,,,,,,,,,0.024253103882074356,0.852645218372345,0.8292383551597595,0.024253103882074356,0.852645218372345,0.8292383551597595
,,,,,,,,,,,,,,,,,,,,,,,,,,0.021431975066661835,0.7986119389533997,0.7852218747138977,0.021431975066661835,0.7986119389533997,0.7852218747138977
,,,,,,,,,,,,,,,,,,,,,,,,,,0.02056019939482212,0.7886301875114441,0.7855338454246521,0.02056019939482212,0.7886301875114441,0.7855338454246521
,,,,,,,,,,,,,,,,,,,,,,,,,,0.019524799659848213,0.7770913243293762,0.7729552984237671,0.019524799659848213,0.7770913243293762,0.7729552984237671
8513140000.0,390.29,23.40999984741211,6327188480.0,28.237633959608704,128.0,0.02671915665268898,2113536.0,2901.6582148075104,0.005830662790685892,0.067626953125,2.1913819313049316,-0.01880662888288498,0.19599533081054688,-0.021913819015026093,0.003107190364971757,0.0,0.2073901891708374,0.6167156100273132,0.910990656418933,5.44627571105957,1.9495841264724731,5.653665542602539,2.067126512527466,580.2185842990875,2.7955942153930664,,,,,,
8513140000.0,393.37,23.079999923706055,6529777152.0,3592.5897324864754,129.0,0.02901412732899189,2129920.0,2906.218713283539,0.005489349365234375,0.0645751953125,2.198861598968506,-0.01955619640648365,0.19234389066696167,-0.02198861539363861,0.002432422712445259,0.0,0.21236951649188995,0.607237696647644,0.8992897628127775,5.682924270629883,1.8634231090545654,5.895294189453125,1.9134734869003296,4.560498476028442,2.7815229892730713,,,,,,
8513140000.0,398.95,23.100000381469727,6529777152.0,3562.615372356538,130.0,0.029858045279979706,2146304.0,2910.8175818920135,0.0049390350468456745,0.0540771484375,2.1413254737854004,-0.02009355090558529,0.20330017805099487,-0.021413255482912064,0.0013197045773267746,0.0,0.17647242546081543,0.6284094452857971,0.8914818323599413,5.9380340576171875,1.8381649255752563,6.114506721496582,1.9076188802719116,4.5988686084747314,2.7842438220977783,,,,,,
8513140000.0,390.56,22.399999618530273,6529777152.0,3585.8314713166783,131.0,0.028186917304992676,2162688.0,2915.386675596237,0.004440781660377979,0.0504150390625,2.1366748809814453,-0.02035617083311081,0.20054711401462555,-0.021366748958826065,0.0010105744004249573,0.0,0.14521372318267822,0.6227220296859741,0.884124513303027,6.320603370666504,1.8049283027648926,6.465817451477051,1.8293578624725342,4.569093704223633,2.751150608062744,,,,,,
8513140000.0,378.01,21.760000228881836,6529777152.0,3619.597654638769,132.0,0.029769545421004295,2179072.0,2919.913145542145,0.006493224762380123,0.07733154296875,2.161743640899658,-0.019854547455906868,0.22251395881175995,-0.021617434918880463,0.0017628846690058708,0.0,0.15906041860580444,0.6574126482009888,0.8814832150631546,6.186742782592773,1.7654271125793457,6.345803260803223,1.9096245765686035,4.526469945907593,2.7485945224761963,,,,,,
8513140000.0,382.41,22.030000686645508,6529777152.0,3509.5485387996773,133.0,0.02779530920088291,2195456.0,2924.5815522670746,0.006387321278452873,0.0728759765625,2.16383695602417,-0.0187159962952137,0.20215444266796112,-0.02163836918771267,0.002922368235886097,0.0,0.14676234126091003,0.6325635313987732,0.8860701689754216,6.614043712615967,1.879224419593811,6.760806083679199,1.8740681409835815,4.66840672492981,2.7536957263946533,,,,,,
8513140000.0,387.79,23.100000381469727,6529777152.0,3514.2815175715923,134.0,0.03012770786881447,2211840.0,2929.243671655655,0.006775313057005405,0.07891845703125,2.153399705886841,-0.019872279837727547,0.2024392932653427,-0.02153399959206581,0.0016617150977253914,0.0,0.13678330183029175,0.6330053210258484,0.8847331359352191,7.002504348754883,1.8452180624008179,7.13928747177124,1.8644682168960571,4.662119388580322,2.7433247566223145,,,,,,
8513140000.0,389.91,22.969999313354492,6529777152.0,3526.1876452055567,135.0,0.0271096583455801,2228224.0,2933.89004945755,0.005949266254901886,0.073974609375,2.165225028991699,-0.020223507657647133,0.2327878475189209,-0.02165224961936474,0.001428741728886962,0.0,0.06855729222297668,0.6797012686729431,0.8733045729248092,6.729844093322754,1.8293442726135254,6.798401832580566,1.909579873085022,4.646377801895142,2.742361545562744,,,,,,
8513140000.0,391.57,22.899999618530273,6529777152.0,3566.7775567844446,136.0,0.029926586896181107,2244608.0,2938.483551502228,0.0037446068599820137,0.0345458984375,2.1510205268859863,-0.02020060271024704,0.21507884562015533,-0.021510204300284386,0.0013096006587147713,0.0,0.13187897205352783,0.6487883925437927,0.8612396947686828,6.9216227531433105,1.677633285522461,7.053501129150391,1.7416867017745972,4.593502044677734,2.756671190261841,,,,,,
8513140000.0,398.62,22.84000015258789,6529777152.0,3544.8511025334324,137.0,0.032509058713912964,2260992.0,2943.105466365814,0.00799563154578209,0.0970458984375,2.141184091567993,-0.017400119453668594,0.18434590101242065,-0.021411839872598648,0.004011722281575203,0.0,0.14669542014598846,0.5997820496559143,0.8965000952318042,7.126561164855957,1.804620623588562,7.273256778717041,1.8643336296081543,4.621914863586426,2.752009630203247,,,,,,
8513140000.0,401.61,24.139999389648438,6529777152.0,3541.9927642185908,138.0,0.02732228673994541,2277376.0,2947.731111049652,0.004871189594268799,0.04901123046875,2.1386356353759766,-0.020643558353185654,0.20971979200839996,-0.02138635702431202,0.0007428019307553768,0.0,0.13204039633274078,0.6375617980957031,0.8853624406921791,7.3462629318237305,1.8208584785461426,7.478302955627441,1.8830362558364868,4.625644683837891,2.7524399757385254,,,,,,
8513140000.0,403.92,24.1299991607666,6529777152.0,3676.9609373967487,139.0,0.03268463537096977,2293760.0,2952.18696475029,0.0032768561504781246,0.0328369140625,2.149482011795044,-0.02027236297726631,0.20906077325344086,-0.021494820713996887,0.0012224595993757248,0.0,0.07493370771408081,0.6371405720710754,0.8755420804877261,7.373208045959473,1.750927448272705,7.448142051696777,1.8060270547866821,4.455853700637817,2.7477433681488037,,,,,,
8513140000.0,404.99,24.6299991607666,6529777152.0,3651.0663716534405,140.0,0.028018295764923096,2310144.0,2956.6744208335876,0.0029234299436211586,0.02862548828125,2.146427631378174,-0.020196789875626564,0.18816611170768738,-0.02146427519619465,0.001267487183213234,0.0,0.11726555228233337,0.6083751320838928,0.8719707452217358,7.537947654724121,1.6901473999023438,7.655213356018066,1.7002646923065186,4.4874560832977295,2.7490084171295166,,,,,,
8513140000.0,400.22,24.110000610351562,6529777152.0,3545.730323381633,141.0,0.02851155400276184,2326528.0,2961.2951896190643,0.0038850978016853333,0.041748046875,2.156475305557251,-0.019935743883252144,0.2129925936460495,-0.021564751863479614,0.0016290023922920227,0.0,0.06762032210826874,0.6439395546913147,0.8782447188165399,7.3055644035339355,1.7592966556549072,7.373184680938721,1.845445156097412,4.620768785476685,2.7467877864837646,,,,,,
8513140000.0,402.76,23.969999313354492,6529777152.0,3639.022947518768,142.0,0.030248839408159256,2342912.0,2965.797497034073,0.004067875444889069,0.0382080078125,2.1627252101898193,-0.021226586773991585,0.16292919218540192,-0.02162725105881691,0.000400664284825325,0.0,0.12595951557159424,0.5689511299133301,0.8778725386333533,7.26572847366333,1.6087086200714111,7.391688346862793,1.628053069114685,4.502307415008545,2.750354528427124,,,,,,
8513140000.0,404.93,23.6299991607666,6529777152.0,3591.298953038496,143.0,0.027387935668230057,2359296.0,2970.3596346378326,0.003564938437193632,0.02838134765625,2.1717963218688965,-0.019975222647190094,0.19570891559123993,-0.021717965602874756,0.0017427420243620872,0.0,0.09120479226112366,0.6197235584259033,0.8379313199723288,7.463913917541504,1.4546068906784058,7.555119037628174,1.5393885374069214,4.562137603759766,2.7454564571380615,,,,,,
8513140000.0,407.48,23.959999084472656,6529777152.0,3535.6881993192515,144.0,0.031847476959228516,2375680.0,2974.9935274124146,0.007129389327019453,0.0760498046875,2.1603996753692627,-0.01795642450451851,0.21493041515350342,-0.02160399593412876,0.0036475714296102524,0.0,0.0843212828040123,0.6507576704025269,0.8255400357976411,7.461241245269775,1.505467176437378,7.545562267303467,1.558013677597046,4.633892774581909,2.8530540466308594,,,,,,
8513140000.0,401.16,23.65999984741211,6529777152.0,3609.110443927116,145.0,0.03054945170879364,2392064.0,2979.5331501960754,0.005700747482478619,0.05572509765625,2.179043769836426,-0.019536463543772697,0.19039702415466309,-0.021790439262986183,0.0022539757192134857,0.0,0.11777181923389435,0.5972791910171509,0.8752334367071953,7.465279579162598,1.6460282802581787,7.583050727844238,1.6909377574920654,4.539622783660889,2.7544310092926025,,,,,,
8513140000.0,403.65,24.18000030517578,6529777152.0,3491.391471642364,146.0,0.02609449438750744,2408448.0,2984.225835084915,0.0031052015256136656,0.02880859375,2.1860291957855225,-0.020418357104063034,0.16350020468235016,-0.021860290318727493,0.0014419377548620105,0.0,0.09424815326929092,0.5681262016296387,0.8503991075544144,7.4890642166137695,1.4723185300827026,7.583312034606934,1.4688494205474854,4.692684888839722,2.7520930767059326,,,,,,
8513140000.0,405.41,24.079999923706055,6529777152.0,3602.3845501398923,147.0,0.031849540770053864,2424832.0,2988.773933649063,0.0021979620214551687,0.0198974609375,2.1625354290008545,-0.021716736257076263,0.2108328491449356,-0.021625353023409843,-9.138556197285652e-05,0.0,0.04654436558485031,0.6517136693000793,0.7865502506601114,7.8513054847717285,1.3433997631072998,7.897850036621094,1.4106156826019287,4.548098564147949,2.7476465702056885,,,,,,
8513140000.0,407.75,22.8799991607666,6529777152.0,3490.4989204361327,148.0,0.025175930932164192,2441216.0,2993.4678184986115,0.002446820493787527,0.01959228515625,2.16351056098938,-0.02075384370982647,0.15019197762012482,-0.021635105833411217,0.0008812565356492996,0.0,0.06821095198392868,0.5343329310417175,0.8744757454548129,7.693621635437012,1.4410912990570068,7.7618327140808105,1.5081605911254883,4.69388484954834,2.7470383644104004,,,,,,
8513140000.0,410.13,23.299999237060547,6529777152.0,3624.2773335853612,149.0,0.02967444248497486,2457600.0,2997.988443851471,0.0035009244456887245,0.033447265625,2.1797094345092773,-0.022932199761271477,0.18663917481899261,-0.021797096356749535,-0.001135101541876793,0.0,0.06636102497577667,0.6032825112342834,0.7962269016779756,7.612523078918457,1.267588496208191,7.6788835525512695,1.3364313840866089,4.520625352859497,2.751677989959717,,,,,,
8513140000.0,414.96,23.8799991607666,6529777152.0,3603.1893888410495,150.0,0.031007543206214905,2473984.0,3002.5355265140533,0.004010745324194431,0.03887939453125,2.18557071685791,-0.02082844078540802,0.1532067060470581,-0.021855702623724937,0.0010272683575749397,0.0,0.06923270970582962,0.554154634475708,0.8342893612314043,7.757505416870117,1.3169575929641724,7.826738357543945,1.3613053560256958,4.5470826625823975,2.770547866821289,,,,,,
8513140000.0,411.99,24.639999389648438,6529777152.0,3583.68397257105,151.0,0.028183940798044205,2490368.0,3007.1073582172394,0.0035510617308318615,0.0296630859375,2.167759656906128,-0.020357651636004448,0.1289767622947693,-0.021677594631910324,0.0013199448585510254,0.0,0.10083715617656708,0.5142106413841248,0.8559447182996249,7.64894437789917,1.3006343841552734,7.749781608581543,1.3548038005828857,4.571831703186035,2.780233144760132,,,,,,
8513140000.0,408.46,24.950000762939453,6529777152.0,3633.959586381178,152.0,0.03272917866706848,2506752.0,3011.6159389019012,0.003305196762084961,0.0291748046875,2.1832358837127686,-0.02012573927640915,0.14555621147155762,-0.021832358092069626,0.0017066188156604767,0.0,0.043834615498781204,0.5300784111022949,0.8236857217991249,7.883770942687988,1.1990134716033936,7.927605628967285,1.2623988389968872,4.508580684661865,2.764796495437622,,,,,,
8513140000.0,399.31,23.559999465942383,6529777152.0,3524.8821146211963,153.0,0.027122288942337036,2523136.0,3016.2640376091003,0.004006693605333567,0.03875732421875,2.1814451217651367,-0.020965944975614548,0.1672726571559906,-0.02181444875895977,0.0008485065773129463,0.0,0.04503069818019867,0.5782588124275208,0.8358567064691927,7.942022323608398,1.2864856719970703,7.987052917480469,1.4272847175598145,4.648098707199097,2.817927122116089,,,,,,
8513140000.0,391.9,23.100000381469727,6529777152.0,3574.5905606682913,154.0,0.030628429725766182,2539520.0,3020.8474996089935,0.0030445316806435585,0.0260009765625,2.153210163116455,-0.021236125379800797,0.13167597353458405,-0.021532099694013596,0.00029597803950309753,0.0,0.08113887906074524,0.5130070447921753,0.8777485344153961,8.037622451782227,1.385460615158081,8.118760108947754,1.4672207832336426,4.5834619998931885,2.836282730102539,,,,,,
8513140000.0,391.76,23.479999542236328,6529777152.0,3668.443074426401,155.0,0.030813992023468018,2555904.0,3025.3136994838715,0.0028119890484958887,0.02630615234375,2.173854351043701,-0.019826941192150116,0.17631389200687408,-0.02173854410648346,0.0019116015173494816,0.0,0.08221428096294403,0.5897261500358582,0.8506734123681674,8.225761413574219,1.4689584970474243,8.307975769042969,1.5260918140411377,4.46619987487793,2.799921989440918,,,,,,
8513140000.0,398.88,24.190000534057617,6529777152.0,3492.163977454637,156.0,0.03041224181652069,2572288.0,3030.005346298218,0.003194483695551753,0.024658203125,2.163583517074585,-0.02080574445426464,0.16805270314216614,-0.021635834127664566,0.0008300896733999252,0.0,0.03509027510881424,0.5833543539047241,0.8486206087062014,8.169828414916992,1.389649748802185,8.20491886138916,1.499335527420044,4.6916468143463135,2.7873101234436035,,,,,,
8513140000.0,406.41,24.940000534057617,6529777152.0,3630.540492167044,157.0,0.03093772940337658,2588672.0,3034.518172979355,0.009518506936728954,0.1025390625,2.179501533508301,-0.01616027019917965,0.1438782811164856,-0.021795015782117844,0.005634744185954332,0.0,0.04605184495449066,0.5309813022613525,0.8612945667543649,8.297468185424805,1.407413363456726,8.343520164489746,1.425715446472168,4.512826681137085,2.7654829025268555,,,,,,
8513140000.0,406.86,24.6299991607666,6529777152.0,3571.5066200447764,158.0,0.02984434925019741,2605056.0,3039.105592727661,0.0047799269668757915,0.0438232421875,2.168480634689331,-0.02003731019794941,0.153946653008461,-0.021684804931282997,0.0016474933363497257,0.0,0.03802074119448662,0.5518538951873779,0.8649993340861413,8.121537208557129,1.4422006607055664,8.159557342529297,1.5019468069076538,4.587419748306274,2.7546050548553467,,,,,,
8513140000.0,409.18,25.43000030517578,6529777152.0,3456.814278723569,159.0,0.028833774849772453,2621440.0,3043.8452167510986,0.00463818060234189,0.04534912109375,2.1764276027679443,-0.0168675035238266,0.1641375720500946,-0.021764276549220085,0.004896771162748337,0.0,0.057933151721954346,0.5720620155334473,0.839353390645992,8.070413589477539,1.347580909729004,8.12834644317627,1.4272719621658325,4.7396240234375,2.7839040756225586,,,,,,
,,,,,,,,,,,,,,,,,,,,,,,,,,0.021090887486934662,0.6693570613861084,0.5093117356300354,0.021090887486934662,0.6693570613861084,0.5093117356300354
,,,,,,,,,,,,,,,,,,,,,,,,,,0.015606768429279327,0.5272068977355957,0.4939926862716675,0.015606768429279327,0.5272068977355957,0.4939926862716675
,,,,,,,,,,,,,,,,,,,,,,,,,,0.014195616357028484,0.4930252134799957,0.4700698256492615,0.014195616357028484,0.4930252134799957,0.4700698256492615
,,,,,,,,,,,,,,,,,,,,,,,,,,0.013355241157114506,0.4801689088344574,0.467042475938797,0.013355241157114506,0.4801689088344574,0.467042475938797
,,,,,,,,,,,,,,,,,,,,,,,,,,0.0130916154012084,0.46745744347572327,0.45710062980651855,0.0130916154012084,0.46745744347572327,0.45710062980651855
,,,,,,,,,,,,,,,,,,,,,,,,,,0.012377191334962845,0.4524664282798767,0.44925254583358765,0.012377191334962845,0.4524664282798767,0.44925254583358765
8513364000.0,406.57,24.899999618530273,6327188480.0,28.279532342866144,160.0,0.032435957342386246,2637824.0,3623.204160928726,0.012267773039638996,0.09368896484375,2.1293790340423584,-0.01747383177280426,0.1484541893005371,-0.02129378914833069,0.003819960169494152,0.0,0.0794798880815506,0.5290327072143555,0.8828427899436767,7.975736141204834,1.5006823539733887,8.055215835571289,1.5456026792526245,579.3589441776276,2.7696890830993652,,,,,,
8513364000.0,409.48,23.950000762939453,6529777152.0,3438.386724684047,161.0,0.025181949138641357,2654208.0,3627.9691863059998,0.006239340174943209,0.0665283203125,2.136280059814453,-0.016921933740377426,0.15014061331748962,-0.021362798288464546,0.004440862685441971,0.0,0.030189543962478638,0.5523363947868347,0.891280427546075,7.827184677124023,1.5603206157684326,7.85737419128418,1.675134539604187,4.76502537727356,2.7732603549957275,,,,,,
8513364000.0,403.47,23.030000686645508,6529777152.0,3563.7109578152877,162.0,0.03228270635008812,2670592.0,3632.5666410923004,0.00665649538859725,0.06561279296875,2.1423404216766357,-0.019839119166135788,0.16693589091300964,-0.021423403173685074,0.0015842828433960676,0.0,0.08153428882360458,0.5557413697242737,0.8637167695613684,7.756052017211914,1.4226540327072144,7.83758544921875,1.5053949356079102,4.597454786300659,2.7815544605255127,,,,,,
8513364000.0,402.43,23.329999923706055,6529777152.0,3611.0148950243915,163.0,0.02933613955974579,2686976.0,3637.10386967659,0.0043969168327748775,0.04241943359375,2.1163384914398193,-0.02104402333498001,0.15411360561847687,-0.02116338349878788,0.00011936482042074203,0.0,0.07223321497440338,0.5579062104225159,0.8973878083587624,7.760385513305664,1.7051126956939697,7.832618713378906,1.7416529655456543,4.537228584289551,2.7503483295440674,,,,,,
8513364000.0,408.9,24.479999542236328,6529777152.0,3612.672350991245,164.0,0.026352763175964355,2703360.0,3641.6390166282654,0.0031634101178497076,0.0274658203125,2.103908061981201,-0.0197918564081192,0.14608082175254822,-0.021039079874753952,0.0012472253292798996,0.0,0.04841133952140808,0.5289644002914429,0.8931966836207436,7.833217620849609,1.545882225036621,7.881629467010498,1.6185821294784546,4.535146951675415,2.7722079753875732,,,,,,
8513364000.0,408.1,24.389999389648438,6529777152.0,3615.9324678427133,165.0,0.03374432772397995,2719744.0,3646.170074701309,0.005881259683519602,0.0587158203125,2.11629056930542,-0.018778976052999496,0.12614493072032928,-0.021162904798984528,0.0023839296773076057,0.0,0.07127099484205246,0.5047036409378052,0.8795593885125857,8.051769256591797,1.4079639911651611,8.123040199279785,1.4542875289916992,4.531058073043823,2.750926971435547,,,,,,
8513364000.0,406.81,23.309999465942383,6529777152.0,3563.08881170187,166.0,0.026862934231758118,2736128.0,3650.7683322429657,0.005303921643644571,0.05780029296875,2.1236066818237305,-0.01874694786965847,0.14021848142147064,-0.02123606763780117,0.002489117905497551,0.0,0.042413219809532166,0.530380368232727,0.899197983199889,8.039621353149414,1.5800457000732422,8.082035064697266,1.6705254316329956,4.598257541656494,2.7500901222229004,,,,,,
8513364000.0,414.56,25.200000762939453,6529777152.0,3680.149551448904,167.0,0.03265688195824623,2752512.0,3655.220325231552,0.007063885685056448,0.08270263671875,2.1102232933044434,-0.018575318157672882,0.10582475364208221,-0.021102232858538628,0.002526913769543171,0.0,0.10553634166717529,0.4554654657840729,0.9119112557088666,7.970690727233887,1.5210678577423096,8.076227188110352,1.5346004962921143,4.451992988586426,2.7578909397125244,,,,,,
8513364000.0,415.52,25.790000915527344,6529777152.0,3545.3906184494,168.0,0.032086510211229324,2768896.0,3659.84153676033,0.0058357324451208115,0.05926513671875,2.119072198867798,-0.018746763467788696,0.1250578761100769,-0.021190721541643143,0.0024439587723463774,0.0,0.08402778208255768,0.49404191970825195,0.9075233242590566,7.8534417152404785,1.5719234943389893,7.937469482421875,1.6246041059494019,4.621211528778076,2.7406835556030273,,,,,,
8513364000.0,411.03,26.139999389648438,6529777152.0,3609.839784614054,169.0,0.02794894576072693,2785280.0,3664.3802423477173,0.0040837060660123825,0.04010009765625,2.099153995513916,-0.020301397889852524,0.12711945176124573,-0.02099153771996498,0.0006901398301124573,0.0,0.06366519629955292,0.5042908191680908,0.8853582143608116,7.858237266540527,1.43455171585083,7.921901702880859,1.4893919229507446,4.538705587387085,2.7469325065612793,,,,,,
8513364000.0,409.35,25.030000686645508,6529777152.0,3497.0793534669338,170.0,0.03320487216114998,2801664.0,3669.0652947425842,0.00469442643225193,0.0567626953125,2.0890347957611084,-0.01927412673830986,0.08890707790851593,-0.02089034765958786,0.0016162227839231491,0.0,0.10987453162670135,0.41899675130844116,0.9044568853147876,8.170421600341797,1.3334286212921143,8.28029727935791,1.3555408716201782,4.685052394866943,2.7521703243255615,,,,,,
8513364000.0,410.45,24.440000534057617,6529777152.0,3618.7934736942993,171.0,0.028722183778882027,2818048.0,3673.592770576477,0.003700140630826354,0.0325927734375,2.0757083892822266,-0.020932156592607498,0.15487509965896606,-0.020757082849740982,-0.00017507607117295265,0.0,0.007069383282214403,0.56537926197052,0.8668816392919038,8.06167221069336,1.4844740629196167,8.068741798400879,1.5496066808700562,4.527475833892822,2.744518280029297,,,,,,
8513364000.0,407.74,24.649999618530273,6529777152.0,3585.4802978914013,172.0,0.030189547687768936,2834432.0,3678.1623117923737,0.0039035514928400517,0.03424072265625,2.056755542755127,-0.01903904601931572,0.14043298363685608,-0.020567556843161583,0.001528511755168438,0.0,0.07044165581464767,0.5260028839111328,0.8741332657365375,8.0013427734375,1.4218591451644897,8.071784973144531,1.4826304912567139,4.5695412158966064,2.7488298416137695,,,,,,
8513364000.0,410.52,24.989999771118164,6529777152.0,3593.0069229697788,173.0,0.030560918152332306,2850816.0,3682.722280740738,0.004925117362290621,0.04559326171875,2.028392791748047,-0.019626576453447342,0.09458987414836884,-0.020283928140997887,0.0006573498249053955,0.0,0.08186976611614227,0.43591415882110596,0.9135911919742243,8.248062133789062,1.438080072402954,8.32993221282959,1.4829341173171997,4.559968948364258,2.748304605484009,,,,,,
8513364000.0,412.59,25.209999084472656,6529777152.0,3653.5449989701733,174.0,0.031206335872411728,2867200.0,3687.206692457199,0.0022356915287673473,0.01934814453125,2.0440926551818848,-0.020039042457938194,0.11839570850133896,-0.020440924912691116,0.00040188152343034744,0.0,0.06725211441516876,0.47352659702301025,0.870905066682029,8.135900497436523,1.2436119318008423,8.203152656555176,1.317919373512268,4.484411716461182,2.742340564727783,,,,,,
8513364000.0,417.62,25.299999237060547,6529777152.0,3559.31348110087,175.0,0.02824936807155609,2883584.0,3691.8098273277283,0.0050646280869841576,0.04974365234375,2.0320286750793457,-0.018732815980911255,0.1440291553735733,-0.020320288836956024,0.0015874747186899185,0.0,0.07161416858434677,0.5389724373817444,0.851147864758499,8.228341102600098,1.3613260984420776,8.299956321716309,1.3969762325286865,4.603134870529175,2.772632598876953,,,,,,
8513364000.0,416.84,25.299999237060547,6529777152.0,3595.2656779261984,176.0,0.033348448574543,2899968.0,3696.366931438446,0.003939145710319281,0.03851318359375,2.0191140174865723,-0.018771924078464508,0.15078094601631165,-0.020191140472888947,0.0014192182570695877,0.0,0.018263552337884903,0.5487266778945923,0.8401352238167366,8.611597061157227,1.2911077737808228,8.629860877990723,1.372396469116211,4.557104110717773,2.755277633666992,,,,,,
8513364000.0,414.97,25.549999237060547,6529777152.0,3659.9651691372683,177.0,0.028859229758381844,2916352.0,3700.8434767723083,0.006979825906455517,0.066650390625,2.0225205421447754,-0.017364369705319405,0.13361108303070068,-0.02022520639002323,0.002860836684703827,0.0,0.05468587949872017,0.51469886302948,0.8481140698156912,8.268638610839844,1.2726640701293945,8.323324203491211,1.3206744194030762,4.476545333862305,2.7628650665283203,,,,,,
8513364000.0,412.43,24.600000381469727,6529777152.0,3510.754666575389,178.0,0.03066190332174301,2932736.0,3705.5102796554565,0.00468430994078517,0.03814697265625,2.011385917663574,-0.016455817967653275,0.14166541397571564,-0.020113857463002205,0.0036580413579940796,0.0,0.04985038563609123,0.5260722637176514,0.8336989095782772,8.399557113647461,1.1812514066696167,8.449407577514648,1.2900288105010986,4.666802883148193,2.7435100078582764,,,,,,
8513364000.0,414.54,25.8700008392334,6529777152.0,3728.101939842993,179.0,0.030877919867634773,2949120.0,3709.9050092697144,0.007637816481292248,0.07244873046875,1.9968090057373047,-0.015573760494589806,0.1344553381204605,-0.01996808871626854,0.004394322633743286,0.0,0.048166677355766296,0.5138355493545532,0.8656802571024643,8.471458435058594,1.3519909381866455,8.519624710083008,1.4020164012908936,4.3947296142578125,2.7463181018829346,,,,,,
8513364000.0,416.71,25.18000030517578,6529777152.0,3598.3397418862764,180.0,0.02748904936015606,2965504.0,3714.458220243454,0.005561873782426119,0.05303955078125,1.9870797395706177,-0.018975013867020607,0.13706417381763458,-0.01987079530954361,0.0008957809768617153,0.0,0.025244738906621933,0.5261496901512146,0.8917315900673803,8.263896942138672,1.5270917415618896,8.289141654968262,1.599037766456604,4.553210973739624,2.750791072845459,,,,,,
8513364000.0,418.09,25.219999313354492,6529777152.0,3577.718760842049,181.0,0.03382544219493866,2981888.0,3719.037674665451,0.006335415877401829,0.060791015625,1.9507975578308105,-0.01784552074968815,0.11846748739480972,-0.01950797624886036,0.0016624536365270615,0.0,0.07688137888908386,0.4772987365722656,0.8154364030477677,8.627315521240234,1.096921682357788,8.704195976257324,1.1110080480575562,4.57945442199707,2.7647781372070312,,,,,,
8513364000.0,412.12,24.889999389648438,6529777152.0,3520.95904932562,182.0,0.030126385390758514,2998272.0,3723.6909523010254,0.0036483241710811853,0.0380859375,1.9611270427703857,-0.018506085500121117,0.1205018162727356,-0.019611269235610962,0.0011051855981349945,0.0,0.02868698723614216,0.49084290862083435,0.8208789787351705,8.451141357421875,1.058201551437378,8.479827880859375,1.1597590446472168,4.653277635574341,2.7859551906585693,,,,,,
8513364000.0,411.66,25.530000686645508,6529777152.0,3506.8055221176655,183.0,0.029676510021090508,3014656.0,3728.3630106449127,0.003592584514990449,0.02862548828125,1.94661545753479,-0.01903584972023964,0.13320006430149078,-0.019466154277324677,0.000430302694439888,0.0,0.05111372470855713,0.5158843994140625,0.840375180532569,8.424261093139648,1.2678065299987793,8.475374221801758,1.2912250757217407,4.672058343887329,2.764143466949463,,,,,,
