CpuMaxMemory,EpLenMean,EpRewMean,GpuMaxMemory,IPS_total,Iter,Misc/FrameRewMean,Misc/InteractCount,Misc/TimeElapsed,Opt/approxkl,Opt/clipfrac,Opt/entropy,Opt/loss_pi,Opt/loss_vf,Opt/negent,Opt/pg,Opt/pi_kl,VFStats/AdvMean,VFStats/AdvStd,VFStats/EV,VFStats/VpredMean,VFStats/VpredStd,VFStats/VtargMean,VFStats/VtargStd,del_time,wait_optimization,scaled/pol_distance,scaled/vf_aux,scaled/vf_true,unscaled/pol_distance,unscaled/vf_aux,unscaled/vf_true
2364656000.0,83.08,-2.119999885559082,6317166080.0,3562.616295837928,0.0,-0.014335484243929386,16384.0,4.598867416381836,0.003279305063188076,0.02691650390625,2.7024378776550293,-0.026071500033140182,0.16757634282112122,-0.02702438086271286,0.0009528788505122066,0.0,-0.20152950286865234,0.5695170164108276,0.0016606075030212164,-0.002622086089104414,0.008103751577436924,-0.20415160059928894,0.5699904561042786,4.598867416381836,2.727433204650879,,,,,,
2563728000.0,81.24,-2.4700000286102295,6519754752.0,3644.596943914307,1.0,-0.013486739248037338,32768.0,9.094289064407349,0.0025371427182108164,0.011962890625,2.698124408721924,-0.027569128200411797,0.16819849610328674,-0.02698124200105667,-0.0005878843367099762,0.0,-0.15288031101226807,0.5722545385360718,0.030791614705588333,-0.175571009516716,0.049827829003334045,-0.32845133543014526,0.5812736749649048,4.495421648025513,2.7188937664031982,,,,,,
2761464000.0,74.93,-1.25,6519754752.0,3608.4365350890043,2.0,-0.010435851290822029,49152.0,13.634759664535522,0.003270776942372322,0.01910400390625,2.6801633834838867,-0.026700487360358238,0.15753816068172455,-0.02680162899196148,0.00010114163160324097,0.0,-0.09306558221578598,0.5546291470527649,0.04680664775611698,-0.2424704134464264,0.08521948009729385,-0.33553600311279297,0.5680835247039795,4.540470600128174,2.728708028793335,,,,,,
2959464000.0,78.24,-1.8899999856948853,6519754752.0,3528.3841585230048,3.0,-0.010121634230017662,65536.0,18.278244972229004,0.0006875620456412435,0.0,2.6952691078186035,-0.026755373924970627,0.15773673355579376,-0.02695269137620926,0.0001973179168999195,0.0,-0.06152886897325516,0.5556156635284424,0.1000256379909602,-0.30367112159729004,0.11758074909448624,-0.3651999831199646,0.5856786966323853,4.6434853076934814,2.734729290008545,,,,,,
3157464000.0,80.3,-1.7799999713897705,6519754752.0,3671.808202770847,4.0,-0.010962683707475662,81920.0,22.740351676940918,0.0028394765686243773,0.00592041015625,2.6808528900146484,-0.026498965919017792,0.15431737899780273,-0.02680853381752968,0.0003095632418990135,0.0,-0.046440862119197845,0.5513424277305603,0.1419945640321667,-0.47390514612197876,0.16641652584075928,-0.5203460454940796,0.5952184796333313,4.462106704711914,2.7333970069885254,,,,,,
3355200000.0,76.73,-2.0299999713897705,6519754752.0,3662.1863555447267,5.0,-0.011548222042620182,98304.0,27.214181900024414,0.003055773675441742,0.01898193359375,2.6693615913391113,-0.02669735625386238,0.17099355161190033,-0.026693617925047874,-3.7364661693573e-06,0.0,-0.020035505294799805,0.5751043558120728,0.2096936024304037,-0.5543240904808044,0.23989629745483398,-0.5743595361709595,0.6469175219535828,4.473830223083496,2.7436347007751465,,,,,,
3552936000.0,73.82,-1.600000023841858,6519754752.0,3581.3971858092204,6.0,-0.010714266449213028,114688.0,31.78893280029297,0.0036179497838020325,0.0303955078125,2.637312889099121,-0.02628178521990776,0.14820456504821777,-0.026373129338026047,9.134598076343536e-05,0.0,-0.027787163853645325,0.5635129809379578,0.2672936301792598,-0.49773967266082764,0.25032830238342285,-0.5255268216133118,0.6583229303359985,4.574750900268555,2.759002923965454,,,,,,
3751992000.0,73.9,-1.9199999570846558,6519754752.0,3526.6659305362637,7.0,-0.009943039156496525,131072.0,36.434680461883545,0.003224102081730962,0.0242919921875,2.6776301860809326,-0.025072189047932625,0.15260794758796692,-0.026776302605867386,0.0017041126266121864,0.0,0.015215931460261345,0.5436817407608032,0.35713581330184263,-0.5739506483078003,0.36690032482147217,-0.5587347745895386,0.6780866384506226,4.645747661590576,2.7527503967285156,,,,,,
3948936000.0,73.32,-2.0899999141693115,6519754752.0,3587.37954942128,8.0,-0.012060478329658508,147456.0,41.00180244445801,0.002605021232739091,0.009521484375,2.6418564319610596,-0.02676043100655079,0.1834723800420761,-0.026418564841151237,-0.0003418652340769768,0.0,0.010082518681883812,0.5774986147880554,0.4505173542184696,-0.7123990654945374,0.4418672025203705,-0.7023165225982666,0.7790654301643372,4.567121982574463,2.746260404586792,,,,,,
4146672000.0,76.57,-1.3600000143051147,6519754752.0,3513.819162210571,9.0,-0.009515034034848213,163840.0,45.66453528404236,0.002542537171393633,0.0159912109375,2.635964870452881,-0.026830079033970833,0.13888879120349884,-0.026359649375081062,-0.00047043152153491974,0.0,0.02819099836051464,0.5279920697212219,0.4488902027504751,-0.584247350692749,0.4066997170448303,-0.5560563802719116,0.7112271785736084,4.662732839584351,2.7500998973846436,,,,,,
4344408000.0,74.65,-1.3899999856948853,6519754752.0,3629.6959739910653,10.0,-0.007227553054690361,180224.0,50.17841196060181,0.0016907384851947427,0.009765625,2.6583919525146484,-0.02645127661526203,0.12147215753793716,-0.026583917438983917,0.0001326426863670349,0.0,0.0234407689422369,0.48437485098838806,0.3924994934118595,-0.4226730465888977,0.4017508625984192,-0.39923226833343506,0.621453046798706,4.513876676559448,2.751026153564453,,,,,,
4542408000.0,80.33,-1.3600000143051147,6519754752.0,3526.7442999048767,11.0,-0.011320418678224087,196608.0,54.82405638694763,0.0019839429296553135,0.00811767578125,2.648484945297241,-0.026363154873251915,0.1359606236219406,-0.02648485079407692,0.00012169033288955688,0.0,-0.049129221588373184,0.5204628705978394,0.45132740552081196,-0.39686548709869385,0.3548054099082947,-0.4459947347640991,0.7026404142379761,4.645644426345825,2.7548153400421143,,,,,,
4740144000.0,72.68,-1.6399999856948853,6519754752.0,3498.137845191765,12.0,-0.008923092857003212,212992.0,59.50769114494324,0.0019454036373645067,0.019775390625,2.677537202835083,-0.0274067260324955,0.144769549369812,-0.02677537128329277,-0.0006313584744930267,0.0,-0.06682081520557404,0.5229432582855225,0.4138026593979667,-0.23624303936958313,0.39746561646461487,-0.30306383967399597,0.6830187439918518,4.6836347579956055,2.762176275253296,,,,,,
4938936000.0,75.38,-2.3399999141693115,6519754752.0,3543.569359401112,13.0,-0.01266773696988821,229376.0,64.13127779960632,0.001846296712756157,0.00946044921875,2.6529173851013184,-0.026684880256652832,0.1485014408826828,-0.02652917057275772,-0.00015570968389511108,0.0,-0.09557993710041046,0.5339016914367676,0.46505752540828493,-0.3027087450027466,0.41590556502342224,-0.39828866720199585,0.7299745678901672,4.623586654663086,2.7600011825561523,,,,,,
5135880000.0,72.03,-1.9299999475479126,6519754752.0,3517.670863179631,14.0,-0.011778827756643295,245760.0,68.7889051437378,0.0031342022120952606,0.03173828125,2.6510777473449707,-0.0260047297924757,0.14348766207695007,-0.026510778814554214,0.0005060485564172268,0.0,-0.08266697824001312,0.5288805961608887,0.5152551600874953,-0.274441123008728,0.4377315938472748,-0.35710811614990234,0.7596281170845032,4.65762734413147,2.7607884407043457,,,,,,
5333616000.0,80.63,-1.3899999856948853,6519754752.0,3496.396818417482,15.0,-0.009399554692208767,262144.0,73.47487211227417,0.0027411459013819695,0.0244140625,2.653895378112793,-0.027134308591485023,0.12736499309539795,-0.026538953185081482,-0.0005953554064035416,0.0,0.0001685391180217266,0.5055414438247681,0.6012332223198358,-0.49212291836738586,0.6143102049827576,-0.49195438623428345,0.8005663156509399,4.685966968536377,2.7665152549743652,,,,,,
5531616000.0,75.5,-1.2000000476837158,6519754752.0,3528.3388681062283,16.0,-0.008733854629099369,278528.0,78.11841702461243,0.0016050732228904963,0.0079345703125,2.6632845401763916,-0.026814093813300133,0.12982553243637085,-0.026632845401763916,-0.00018124468624591827,0.0,0.01977875642478466,0.5169078707695007,0.6016274453682766,-0.5116797089576721,0.6315867304801941,-0.4919009804725647,0.8189708590507507,4.643544912338257,2.773867607116699,,,,,,
5729352000.0,71.97,-2.049999952316284,6519754752.0,3553.147951011892,17.0,-0.009878290817141533,294912.0,82.72953939437866,0.002003026194870472,0.01495361328125,2.620880126953125,-0.026334328576922417,0.12437837570905685,-0.026208801195025444,-0.00012552831321954727,0.0,0.07748299092054367,0.49184098839759827,0.660250890891295,-0.7063589692115784,0.6498558521270752,-0.6288759708404541,0.8438116908073425,4.611122369766235,2.768709182739258,,,,,,
5927352000.0,77.27,-1.0,6519754752.0,3678.4711626434064,18.0,-0.009946921840310097,311296.0,87.18356370925903,0.0025464831851422787,0.0302734375,2.654681921005249,-0.025891413912177086,0.1266603171825409,-0.026546817272901535,0.0006554020801559091,0.0,0.04333707317709923,0.5005898475646973,0.6619107601541331,-0.5825503468513489,0.6510986685752869,-0.5392132997512817,0.860927164554596,4.454024314880371,2.767439126968384,,,,,,
6126144000.0,75.67,-1.4199999570846558,6519754752.0,3509.8199214748424,19.0,-0.006899107247591019,327680.0,91.85160946846008,0.0016070858109742403,0.0050048828125,2.627018928527832,-0.026110872626304626,0.12793168425559998,-0.02627018839120865,0.00015931576490402222,0.0,0.06448095291852951,0.4627954959869385,0.6943151170156925,-0.45445483922958374,0.712859034538269,-0.3899739384651184,0.8370514512062073,4.66804575920105,2.7683587074279785,,,,,,
6323088000.0,74.65,-1.4600000381469727,6519754752.0,3583.014854452209,20.0,-0.009490953758358955,344064.0,96.42429494857788,0.0020462030079215765,0.01495361328125,2.6388142108917236,-0.025420505553483963,0.11835616827011108,-0.02638813853263855,0.0009676339104771614,0.0,0.013006756082177162,0.4794750511646271,0.665660220333637,-0.4994332194328308,0.6604813933372498,-0.4864264726638794,0.829224169254303,4.572685480117798,2.778381109237671,,,,,,
6520824000.0,73.6,-1.4700000286102295,6519754752.0,3565.6251369354204,21.0,-0.009725012816488743,360448.0,101.01928162574768,0.0025515081360936165,0.0240478515625,2.617135524749756,-0.026145603507757187,0.12045113742351532,-0.026171352714300156,2.574920654296875e-05,0.0,0.05119863152503967,0.49074748158454895,0.7050000822155024,-0.5581331849098206,0.7559754252433777,-0.5069345831871033,0.9035395979881287,4.5949866771698,2.7744104862213135,,,,,,
6718824000.0,76.26,-1.2899999618530273,6519754752.0,3436.1078450059554,22.0,-0.008514351211488247,376832.0,105.78746724128723,0.0017462344840168953,0.0086669921875,2.6331229209899902,-0.02549348585307598,0.12254506349563599,-0.026331229135394096,0.0008377427002415061,0.0,0.058431174606084824,0.482162743806839,0.7041804350641323,-0.5969851016998291,0.7469865679740906,-0.5385538935661316,0.8865030407905579,4.768185615539551,2.8584182262420654,,,,,,
6916560000.0,80.64,-1.2300000190734863,6519754752.0,3415.248062408468,23.0,-0.006115864031016827,393216.0,110.5847761631012,0.0050990222953259945,0.03948974609375,2.599571704864502,-0.025228174403309822,0.1118716299533844,-0.02599571831524372,0.0007675420492887497,0.0,0.09347554296255112,0.43903782963752747,0.6982730904005459,-0.48529279232025146,0.6571864485740662,-0.39181724190711975,0.7992725968360901,4.797308921813965,2.827461004257202,,,,,,
7114296000.0,78.54,-1.5700000524520874,6519754752.0,3532.959583395498,24.0,-0.009817666374146938,409600.0,115.222247838974,0.001536614028736949,0.01483154296875,2.623831033706665,-0.02505001612007618,0.1339157074689865,-0.02623831108212471,0.0011882968246936798,0.0,0.0724027007818222,0.4818050265312195,0.7125804355946349,-0.624194860458374,0.7443314790725708,-0.5517921447753906,0.898696780204773,4.637471675872803,2.7753231525421143,,,,,,
7313352000.0,71.14,-0.8700000047683716,6519754752.0,3474.232431761804,25.0,-0.006894241087138653,425984.0,119.93810963630676,0.0011102443095296621,0.00506591796875,2.5961673259735107,-0.0261031873524189,0.10219097137451172,-0.025961672887206078,-0.00014151819050312042,0.0,0.09542205929756165,0.434705913066864,0.7317139342999912,-0.5643773674964905,0.7221102118492126,-0.4689553380012512,0.8392600417137146,4.715861797332764,2.793064594268799,,,,,,
7510032000.0,71.82,-1.0399999618530273,6519754752.0,3628.825787418155,26.0,-0.0058206371031701565,442368.0,124.45306873321533,0.00443677231669426,0.05499267578125,2.577604055404663,-0.025316894054412842,0.08466793596744537,-0.025776037946343422,0.0004591420292854309,0.0,0.09648598730564117,0.4142972230911255,0.7375154474782043,-0.5621448755264282,0.7766938805580139,-0.46565887331962585,0.8086491227149963,4.514959096908569,2.7819535732269287,,,,,,
7708032000.0,70.25,-1.159999966621399,6519754752.0,3583.058009796339,27.0,-0.009071823209524155,458752.0,129.02569913864136,0.003137820865958929,0.027099609375,2.6241025924682617,-0.027171384543180466,0.09060340374708176,-0.02624102681875229,-0.0009303591214120388,0.0,0.07558363676071167,0.42587220668792725,0.7315956692178882,-0.555781364440918,0.7425686120986938,-0.4801977574825287,0.8220241069793701,4.572630405426025,2.7790377140045166,,,,,,
7905768000.0,76.19,-1.1799999475479126,6519754752.0,3566.0053698056677,28.0,-0.007441045716404915,475136.0,133.6201958656311,0.0016819663578644395,0.01007080078125,2.6099493503570557,-0.025860697031021118,0.0985116958618164,-0.026099495589733124,0.00023879855871200562,0.0,0.06279890984296799,0.4269093871116638,0.708245402095917,-0.4989933967590332,0.6599214673042297,-0.436194509267807,0.7903634905815125,4.594496726989746,2.782219886779785,,,,,,
8103768000.0,75.26,-1.1399999856948853,6519754752.0,3518.4627895150647,29.0,-0.007848361507058144,491520.0,138.27677488327026,0.0022427544463425875,0.0103759765625,2.5905346870422363,-0.02490503154695034,0.09190122038125992,-0.025905348360538483,0.0010003168135881424,0.0,0.06336793303489685,0.4118683338165283,0.732792322656785,-0.5285126566886902,0.6756694912910461,-0.46514472365379333,0.7967717051506042,4.65657901763916,2.7908365726470947,,,,,,
8301504000.0,75.45,-1.0,6519754752.0,3480.1029340448626,30.0,-0.008231477811932564,507904.0,142.98468160629272,0.0016684888396412134,0.01141357421875,2.602602005004883,-0.024926237761974335,0.09160882234573364,-0.02602601796388626,0.001099786488339305,0.0,0.0066984873265028,0.4244530498981476,0.7722398147605016,-0.40418267250061035,0.7605484127998352,-0.3974841833114624,0.8893868923187256,4.707906723022461,2.781873941421509,,,,,,
8500296000.0,74.07,-0.7099999785423279,6519754752.0,3493.9894349740835,31.0,-0.00651975255459547,524288.0,147.6738772392273,0.0020665153861045837,0.01153564453125,2.5854597091674805,-0.024783039465546608,0.07490336894989014,-0.025854595005512238,0.0010715564712882042,0.0,0.03923056274652481,0.3841191530227661,0.8026334028998305,-0.3951725363731384,0.7718927264213562,-0.3559420108795166,0.8646276593208313,4.68919563293457,2.773158550262451,,,,,,
,,,,,,,,,,,,,,,,,,,,,,,,,,0.002303819637745619,0.18172961473464966,0.13764925301074982,0.002303819637745619,0.18172961473464966,0.13764925301074982
,,,,,,,,,,,,,,,,,,,,,,,,,,0.0017793562728911638,0.12495774775743484,0.11683524399995804,0.0017793562728911638,0.12495774775743484,0.11683524399995804
,,,,,,,,,,,,,,,,,,,,,,,,,,0.0014845705591142178,0.10924763977527618,0.10464489459991455,0.0014845705591142178,0.10924763977527618,0.10464489459991455
,,,,,,,,,,,,,,,,,,,,,,,,,,0.0015311937313526869,0.10248267650604248,0.10043551027774811,0.0015311937313526869,0.10248267650604248,0.10043551027774811
,,,,,,,,,,,,,,,,,,,,,,,,,,0.0012705600820481777,0.0985000804066658,0.09742336720228195,0.0012705600820481777,0.0985000804066658,0.09742336720228195
,,,,,,,,,,,,,,,,,,,,,,,,,,0.0013388765510171652,0.09597842395305634,0.0944514349102974,0.0013388765510171652,0.09597842395305634,0.0944514349102974
8512492000.0,76.39,-1.100000023841858,6327188480.0,28.119324550333193,32.0,-0.006216387264430523,540672.0,730.3336765766144,0.002165106823667884,0.0135498046875,2.5962491035461426,-0.02592036873102188,0.08805326372385025,-0.02596249245107174,4.211964551359415e-05,0.0,0.03739623725414276,0.41990432143211365,0.7187655696814481,-0.3733135461807251,0.6202975511550903,-0.33591729402542114,0.7918010950088501,582.6597993373871,2.779317855834961,,,,,,
8512492000.0,75.43,-1.0099999904632568,6529777152.0,3532.9781101754656,33.0,-0.004834214225411415,557056.0,734.9711239337921,0.003921153023838997,0.0340576171875,2.5844626426696777,-0.025984514504671097,0.06641840189695358,-0.025844626128673553,-0.00013989023864269257,0.0,0.0311485156416893,0.3676997125148773,0.7892421483922224,-0.3626170754432678,0.668865442276001,-0.3314685821533203,0.800942599773407,4.637447357177734,2.78523588180542,,,,,,
8512492000.0,72.86,-0.8899999856948853,6529777152.0,3586.3811012977194,34.0,-0.005850792396813631,573440.0,739.5395174026489,0.003473584307357669,0.030517578125,2.571439504623413,-0.024727024137973785,0.061864566057920456,-0.025714391842484474,0.0009873677045106888,0.0,0.03819354251027107,0.35466352105140686,0.7999496272898332,-0.28257206082344055,0.7047582268714905,-0.24437852203845978,0.7929519414901733,4.5683934688568115,2.784198522567749,,,,,,
8512492000.0,76.33,-0.7900000214576721,6529777152.0,3484.4775906377986,35.0,-0.005295753479003906,589824.0,744.2415134906769,0.0027121903840452433,0.02667236328125,2.589550495147705,-0.027211086824536324,0.0689760148525238,-0.025895502418279648,-0.0013155816122889519,0.0,0.03108261711895466,0.36866000294685364,0.7712754424312664,-0.27707502245903015,0.7050961256027222,-0.24599240720272064,0.7708495259284973,4.701996088027954,2.7702696323394775,,,,,,
8512492000.0,82.16,-0.3799999952316284,6529777152.0,3496.6896566603186,36.0,-0.002565019764006138,606208.0,748.927088022232,0.0014524566940963268,0.00726318359375,2.577821969985962,-0.025546221062541008,0.06594738364219666,-0.02577821910381317,0.0002320015337318182,0.0,0.033994339406490326,0.36628034710884094,0.7024159867894197,-0.15865524113178253,0.6014529466629028,-0.12466089427471161,0.671442449092865,4.685574531555176,2.788219451904297,,,,,,
8512492000.0,79.8,-0.17000000178813934,6529777152.0,3415.7041941856537,37.0,-0.0010110466973856091,622592.0,753.723756313324,0.0049695116467773914,0.0670166015625,2.596320152282715,-0.02666274830698967,0.06289387494325638,-0.025963202118873596,-0.0006995443254709244,0.0,0.029581325128674507,0.3667984902858734,0.6984982110263891,-0.10169131308794022,0.5774876475334167,-0.07210998237133026,0.6680094599723816,4.796668291091919,2.75860333442688,,,,,,
8512492000.0,80.24,-0.1599999964237213,6529777152.0,3496.9969582713793,38.0,0.0007860348559916019,638976.0,758.408919095993,0.0045160227455198765,0.049072265625,2.6032238006591797,-0.025088321417570114,0.05544945225119591,-0.026032239198684692,0.0009439177811145782,0.0,0.035762399435043335,0.3385752737522125,0.7333479783929981,-0.0700400173664093,0.5999521017074585,-0.034277621656656265,0.655666172504425,4.685162782669067,2.7583110332489014,,,,,,
8512492000.0,78.24,0.1599999964237213,6529777152.0,3503.759137770928,39.0,-0.00019763479940593243,655360.0,763.0850396156311,0.0037646659184247255,0.04010009765625,2.5843091011047363,-0.025881266221404076,0.05458950251340866,-0.02584308758378029,-3.817654214799404e-05,0.0,0.0018065243493765593,0.3310302197933197,0.7195345129180833,0.018242022022604942,0.5058519244194031,0.02004854567348957,0.6250689625740051,4.6761205196380615,2.76466965675354,,,,,,
8512492000.0,79.96,0.07000000029802322,6529777152.0,3472.8094052399697,40.0,0.0007604013080708683,671744.0,767.8028337955475,0.00629879767075181,0.06488037109375,2.60068941116333,-0.024860752746462822,0.06682632118463516,-0.026006894186139107,0.0011461400426924229,0.0,0.010541765950620174,0.37078794836997986,0.697976103754756,-0.016973864287137985,0.5304588079452515,-0.006432098802179098,0.6746910214424133,4.717794179916382,2.7662832736968994,,,,,,
8512492000.0,82.69,0.6100000143051147,6529777152.0,3550.4598343423013,41.0,0.0018260723445564508,688128.0,772.4174473285675,0.006609980948269367,0.059326171875,2.5768184661865234,-0.025109298527240753,0.06452349573373795,-0.025768185034394264,0.0006588846445083618,0.0,0.03560171276330948,0.3656688630580902,0.6560289409477185,-0.0029787945095449686,0.5378779172897339,0.032622918486595154,0.6234864592552185,4.6146135330200195,2.774416923522949,,,,,,
8512492000.0,76.26,0.2800000011920929,6529777152.0,3599.2074317285856,42.0,0.0014348155818879604,704512.0,776.969560623169,0.005635547451674938,0.05584716796875,2.5743563175201416,-0.026729047298431396,0.05825398862361908,-0.02574356272816658,-0.0009854868985712528,0.0,0.009113138541579247,0.34024664759635925,0.7190408767842812,0.039997734129428864,0.5304858684539795,0.04911087453365326,0.641907274723053,4.55211329460144,2.7643275260925293,,,,,,
8512492000.0,77.76,0.8600000143051147,6529777152.0,3526.0389200284485,43.0,0.0048915487714111805,720896.0,781.6161344051361,0.0030851776245981455,0.0341796875,2.57477068901062,-0.025816962122917175,0.04723336547613144,-0.02574770525097847,-6.925733759999275e-05,0.0,0.021461624652147293,0.31301647424697876,0.7150820410796155,0.14938119053840637,0.4839510917663574,0.17084281146526337,0.5864179730415344,4.646573781967163,2.7690935134887695,,,,,,
8512492000.0,79.08,0.800000011920929,6529777152.0,3659.4837604911413,44.0,0.005791855975985527,737280.0,786.0932686328888,0.007226796820759773,0.08099365234375,2.5452418327331543,-0.02183321863412857,0.044175803661346436,-0.025452420115470886,0.0036191996186971664,0.0,0.030009619891643524,0.29950204491615295,0.6851560765549431,0.18116116523742676,0.4969339370727539,0.21117077767848969,0.5337674617767334,4.4771342277526855,2.76774263381958,,,,,,
8512492000.0,74.3,0.3499999940395355,6529777152.0,3610.779811740956,45.0,0.005750471260398626,753664.0,790.6307926177979,0.008938012644648552,0.0904541015625,2.561366558074951,-0.016453230753540993,0.04471752792596817,-0.02561366744339466,0.00916043110191822,0.0,0.016765844076871872,0.3017449378967285,0.7184819300488443,0.14741358160972595,0.4762503504753113,0.16417944431304932,0.5687047243118286,4.537523984909058,2.768017292022705,,,,,,
8512492000.0,79.38,0.6499999761581421,6529777152.0,3534.0669905189907,46.0,0.005237030331045389,770048.0,795.266811132431,0.012092056684195995,0.0947265625,2.5310211181640625,-0.022226441651582718,0.04682718589901924,-0.0253102108836174,0.003083767369389534,0.0,0.005946254823356867,0.3116368055343628,0.6464263047688238,0.1991153508424759,0.4418051242828369,0.20506161451339722,0.524093508720398,4.636018514633179,2.7634458541870117,,,,,,
8512492000.0,84.39,1.0499999523162842,6529777152.0,3431.1273693907356,47.0,0.0068603320978581905,786432.0,800.0419180393219,0.00504703214392066,0.05853271484375,2.5501790046691895,-0.02473803050816059,0.04380180686712265,-0.025501789525151253,0.0007637618109583855,0.0,0.015426660887897015,0.2992204427719116,0.6801887279593968,0.1986425817012787,0.43678227066993713,0.21406923234462738,0.5291081070899963,4.775106906890869,2.767636299133301,,,,,,
8512492000.0,82.59,1.3799999952316284,6529777152.0,3490.7505194131045,48.0,0.007912994362413883,802816.0,804.7354645729065,0.005140078254044056,0.05975341796875,2.5302176475524902,-0.023653173819184303,0.03240567445755005,-0.02530217356979847,0.00164900254458189,0.0,0.03249295800924301,0.2594665288925171,0.71947772145157,0.22056683897972107,0.4038179814815521,0.2530598044395447,0.48988890647888184,4.693546533584595,2.776254177093506,,,,,,
8512492000.0,84.5,1.1699999570846558,6529777152.0,3540.63993308593,49.0,0.00798124261200428,819200.0,809.3628766536713,0.005092970561236143,0.05853271484375,2.5566816329956055,-0.022362763062119484,0.03159040957689285,-0.025566818192601204,0.003204052336513996,0.0,0.026856618002057076,0.25134408473968506,0.726288741401061,0.263494074344635,0.4184211492538452,0.29035067558288574,0.4804212749004364,4.6274120807647705,2.773923397064209,,,,,,
8512492000.0,77.67,1.5399999618530273,6529777152.0,3503.258112765395,50.0,0.009249629452824593,835584.0,814.0396659374237,0.004488990176469088,0.0533447265625,2.5302062034606934,-0.024100491777062416,0.03317306563258171,-0.025302063673734665,0.0012015711981803179,0.0,0.03628523647785187,0.2583475410938263,0.7300395032464888,0.2452523410320282,0.4084855020046234,0.28153756260871887,0.49722644686698914,4.676789283752441,2.7644875049591064,,,,,,
8512492000.0,80.62,1.2200000286102295,6529777152.0,3449.882902190908,51.0,0.008873190730810165,851968.0,818.7888126373291,0.004466483369469643,0.05279541015625,2.520106077194214,-0.024309681728482246,0.028325866907835007,-0.025201061740517616,0.0008913809433579445,0.0,0.033945754170417786,0.2435237467288971,0.7498785001124866,0.26966485381126404,0.38865533471107483,0.303610622882843,0.48692917823791504,4.7491466999053955,2.76731014251709,,,,,,
8512492000.0,79.6,1.649999976158142,6529777152.0,3567.8056839440046,52.0,0.010577943176031113,868352.0,823.3809909820557,0.006439900957047939,0.0753173828125,2.5178322792053223,-0.023043906316161156,0.02182171307504177,-0.025178322568535805,0.0021344139240682125,0.0,0.05481409281492233,0.2091396152973175,0.7974454546978328,0.2781062126159668,0.39836224913597107,0.3329203128814697,0.464692085981369,4.5921783447265625,2.7723350524902344,,,,,,
8512492000.0,80.82,1.340000033378601,6529777152.0,3585.926152110176,53.0,0.009635303169488907,884736.0,827.9499640464783,0.008145713247358799,0.08966064453125,2.4845800399780273,-0.022117706015706062,0.029508279636502266,-0.024845799431204796,0.002728098537772894,0.0,0.03733089566230774,0.24393343925476074,0.7905683394352601,0.3114117383956909,0.4373036324977875,0.34874260425567627,0.5330281853675842,4.568973064422607,2.7790143489837646,,,,,,
8512492000.0,83.8,1.6299999952316284,6529777152.0,3571.9204133479398,54.0,0.010615899227559566,901120.0,832.5368523597717,0.006871371995657682,0.0860595703125,2.5229873657226562,-0.022635512053966522,0.023215264081954956,-0.02522987313568592,0.0025943624787032604,0.0,0.052345238626003265,0.21287283301353455,0.8255974209115362,0.3112466037273407,0.44840896129608154,0.3635918200016022,0.5097341537475586,4.586888313293457,2.7832329273223877,,,,,,
8512492000.0,80.39,1.559999942779541,6529777152.0,3470.7774042993524,55.0,0.01229607593268156,917504.0,837.257408618927,0.007649062667042017,0.08648681640625,2.4847638607025146,-0.021323442459106445,0.028855791315436363,-0.024847637861967087,0.0035241926088929176,0.0,0.04449399560689926,0.24248911440372467,0.8157754014292662,0.3700352907180786,0.48268669843673706,0.41452929377555847,0.5649609565734863,4.720556259155273,2.783818244934082,,,,,,
8512492000.0,89.77,1.5399999618530273,6529777152.0,3497.6512439533103,56.0,0.008924952708184719,933888.0,841.9416949748993,0.007034612353891134,0.07843017578125,2.5082006454467773,-0.023282863199710846,0.024120476096868515,-0.025082003325223923,0.0017991424538195133,0.0,0.03404941409826279,0.21966195106506348,0.8185072492926317,0.2891017198562622,0.44133079051971436,0.323151171207428,0.5156146287918091,4.68428635597229,2.7887864112854004,,,,,,
8512492000.0,91.57,1.7599999904632568,6529777152.0,3429.729499786214,57.0,0.010507520288228989,950272.0,846.7187480926514,0.006324034184217453,0.08026123046875,2.47926664352417,-0.023166369646787643,0.03185625746846199,-0.024792663753032684,0.0016262936405837536,0.0,0.05055634677410126,0.24792692065238953,0.7964928311093378,0.3637799024581909,0.478129506111145,0.41433626413345337,0.5495837330818176,4.777053117752075,2.878978729248047,,,,,,
8512492000.0,88.4,1.7000000476837158,6529777152.0,3521.221012974661,58.0,0.011246013455092907,966656.0,851.3716795444489,0.00458541139960289,0.0506591796875,2.498737096786499,-0.021778350695967674,0.03324700891971588,-0.024987373501062393,0.003209022805094719,0.0,0.05294444411993027,0.2544978857040405,0.8076475635718393,0.4107605516910553,0.4846155047416687,0.46370500326156616,0.5802769660949707,4.652931451797485,2.7688846588134766,,,,,,
8512492000.0,92.63,1.9500000476837158,6529777152.0,3500.9047674310673,59.0,0.011917591094970703,983040.0,856.0516126155853,0.00773945078253746,0.10357666015625,2.4787049293518066,-0.02363555319607258,0.031524792313575745,-0.024787047877907753,0.0011514956131577492,0.0,0.040967490524053574,0.2145226150751114,0.868548257760612,0.4239037036895752,0.5215880274772644,0.4648711681365967,0.5916841626167297,4.679933071136475,2.7694194316864014,,,,,,
8512492000.0,89.25,1.9299999475479126,6529777152.0,3520.451831097148,60.0,0.011986842378973961,999424.0,860.7055606842041,0.005528199020773172,0.061279296875,2.468012809753418,-0.023612551391124725,0.024829834699630737,-0.02468012645840645,0.001067575067281723,0.0,0.05756504088640213,0.21563982963562012,0.8540758287190386,0.4037386178970337,0.4934168756008148,0.4613036811351776,0.5645018815994263,4.653948068618774,2.785266399383545,,,,,,
8512492000.0,90.97,1.8200000524520874,6529777152.0,3584.0987232698494,61.0,0.012057019397616386,1015808.0,865.2768633365631,0.0065021212212741375,0.072021484375,2.429377794265747,-0.025084858760237694,0.02607719600200653,-0.024293778464198112,-0.0007910765707492828,0.0,0.07279335707426071,0.22493937611579895,0.8399872862445504,0.3742538094520569,0.48430103063583374,0.4470471739768982,0.5623261332511902,4.571302652359009,2.7891013622283936,,,,,,
8512492000.0,97.72,1.940000057220459,6529777152.0,3476.9199585377173,62.0,0.013396535068750381,1032192.0,869.98907995224,0.0073816911317408085,0.08477783203125,2.438751459121704,-0.021410059183835983,0.034399546682834625,-0.024387512356042862,0.0029774513095617294,0.0,0.059894829988479614,0.2658160328865051,0.8056274829618887,0.48080897331237793,0.504443883895874,0.5407037734985352,0.6029256582260132,4.71221661567688,2.789149045944214,,,,,,
8513220000.0,99.15,2.0,6529777152.0,3477.487033762952,63.0,0.012983773835003376,1048576.0,874.7005281448364,0.009859276004135609,0.10809326171875,2.4106850624084473,-0.018245059996843338,0.030238844454288483,-0.02410685084760189,0.005861791782081127,0.0,0.055805884301662445,0.2505098283290863,0.8373632724446243,0.5582156181335449,0.532183825969696,0.6140214800834656,0.6211771368980408,4.7114481925964355,2.799828290939331,,,,,,
,,,,,,,,,,,,,,,,,,,,,,,,,,0.014537100680172443,0.0974353775382042,0.0869731605052948,0.014537100680172443,0.0974353775382042,0.0869731605052948
,,,,,,,,,,,,,,,,,,,,,,,,,,0.0058700162917375565,0.07629018276929855,0.07463029772043228,0.0058700162917375565,0.07629018276929855,0.07463029772043228
,,,,,,,,,,,,,,,,,,,,,,,,,,0.005195451434701681,0.07224556058645248,0.0714116320014,0.005195451434701681,0.07224556058645248,0.0714116320014
,,,,,,,,,,,,,,,,,,,,,,,,,,0.0051685054786503315,0.07147692888975143,0.07082065939903259,0.0051685054786503315,0.07147692888975143,0.07082065939903259
,,,,,,,,,,,,,,,,,,,,,,,,,,0.004693823400884867,0.06938505172729492,0.06934692710638046,0.004693823400884867,0.06938505172729492,0.06934692710638046
,,,,,,,,,,,,,,,,,,,,,,,,,,0.004607221577316523,0.06831690669059753,0.06787483394145966,0.004607221577316523,0.06831690669059753,0.06787483394145966
8514012000.0,104.03,2.559999942779541,6327188480.0,28.143556960687306,64.0,0.013343206606805325,1064960.0,1456.8586406707764,0.004185366444289684,0.038330078125,2.4327194690704346,-0.022633111104369164,0.03474000468850136,-0.024327192455530167,0.0016940804198384285,0.0,0.11429235339164734,0.2572321593761444,0.8060789678930521,0.33288490772247314,0.5026100277900696,0.4471772313117981,0.5841344594955444,582.1581125259399,2.7865734100341797,,,,,,
8514012000.0,98.95,2.309999942779541,6529777152.0,3464.8692874662893,65.0,0.014218431897461414,1081344.0,1461.5872461795807,0.003374987281858921,0.03985595703125,2.4318411350250244,-0.025790374726057053,0.04063107445836067,-0.024318411946296692,-0.00147196464240551,0.0,0.10337082296609879,0.2921557128429413,0.7955370058273687,0.5143107175827026,0.5716859698295593,0.6176815032958984,0.6461107730865479,4.728605508804321,2.790534734725952,,,,,,
8514012000.0,103.21,2.5999999046325684,6529777152.0,3411.7959740401657,66.0,0.013751329854130745,1097728.0,1466.3894090652466,0.006617243401706219,0.06781005859375,2.386016368865967,-0.022647926583886147,0.041245825588703156,-0.02386016584932804,0.0012122411280870438,0.0,0.07340451329946518,0.2937396764755249,0.8390760743554825,0.651117205619812,0.649254322052002,0.7245217561721802,0.7322381734848022,4.8021628856658936,2.7978315353393555,,,,,,
8514012000.0,111.55,2.700000047683716,6529777152.0,3572.867727862908,67.0,0.013759631663560867,1114112.0,1470.975081205368,0.004208487458527088,0.04925537109375,2.371276378631592,-0.024650298058986664,0.04286212846636772,-0.0237127635627985,-0.000937536358833313,0.0,0.06252794712781906,0.30974510312080383,0.8463106318388924,0.719623327255249,0.7004555463790894,0.7821512222290039,0.7901007533073425,4.58567214012146,2.7652246952056885,,,,,,
8514012000.0,108.25,2.700000047683716,6529777152.0,3522.9119044877584,68.0,0.015103421173989773,1130496.0,1475.625779390335,0.004237593151628971,0.04766845703125,2.390949249267578,-0.023668674752116203,0.04331865906715393,-0.023909490555524826,0.0002408195286989212,0.0,0.05473008006811142,0.3074598014354706,0.8590687256460074,0.9101953506469727,0.7658635973930359,0.9649254083633423,0.8190014362335205,4.650698184967041,2.7612433433532715,,,,,,
8514012000.0,109.45,3.190000057220459,6529777152.0,3532.5687499556625,69.0,0.016097044572234154,1146880.0,1480.26376414299,0.00607198104262352,0.05908203125,2.355780601501465,-0.02110506035387516,0.07636501640081406,-0.02355780452489853,0.0024527418427169323,0.0,0.06226394698023796,0.3991367220878601,0.7743313576813569,0.8352230787277222,0.7217301726341248,0.8974869847297668,0.840206503868103,4.637984752655029,2.766557216644287,,,,,,
8514012000.0,110.25,3.4800000190734863,6529777152.0,3435.32232792051,70.0,0.016561422497034073,1163264.0,1485.033040046692,0.004232228267937899,0.047607421875,2.3518285751342773,-0.022215258330106735,0.06340797245502472,-0.023518284782767296,0.0013030320405960083,0.0,0.04054981470108032,0.35668396949768066,0.8164897307093277,0.8681236505508423,0.7352098822593689,0.9086734652519226,0.8326326012611389,4.769275903701782,2.7640886306762695,,,,,,
8514012000.0,118.34,2.9600000381469727,6529777152.0,3496.612795217216,71.0,0.015478745102882385,1179648.0,1489.7187175750732,0.006100729573518038,0.0701904296875,2.3431596755981445,-0.02193988859653473,0.06497630476951599,-0.023431595414876938,0.0014917068183422089,0.0,0.09265931695699692,0.3599647879600525,0.7969404570998109,0.8488816618919373,0.6766890287399292,0.9415409564971924,0.798818826675415,4.685677528381348,2.7608120441436768,,,,,,
8514012000.0,116.09,3.0999999046325684,6529777152.0,3516.150866943479,72.0,0.016202591359615326,1196032.0,1494.3783583641052,0.006483931560069323,0.07232666015625,2.3229784965515137,-0.019824793562293053,0.06056484207510948,-0.02322978340089321,0.0034049898386001587,0.0,0.05956406518816948,0.3531201481819153,0.8019614959579361,0.791691780090332,0.6749048829078674,0.8512557744979858,0.7935013771057129,4.659640789031982,2.7658097743988037,,,,,,
8514012000.0,122.67,3.319999933242798,6529777152.0,3583.148247057033,73.0,0.015221417881548405,1212416.0,1498.9508736133575,0.004973666742444038,0.05291748046875,2.3531386852264404,-0.020758576691150665,0.06751123070716858,-0.023531386628746986,0.00277280667796731,0.0,0.0847570151090622,0.35731372237205505,0.837307633033804,0.8582971096038818,0.7427438497543335,0.9430540800094604,0.8858620524406433,4.572515249252319,2.765684127807617,,,,,,
8514012000.0,120.5,2.940000057220459,6529777152.0,3566.6653727198886,74.0,0.014441978186368942,1228800.0,1503.5445201396942,0.008554136380553246,0.08837890625,2.3185081481933594,-0.020192395895719528,0.061061859130859375,-0.023185081779956818,0.002992682158946991,0.0,0.07860477268695831,0.35545599460601807,0.8649752150719546,0.8958430290222168,0.8553318977355957,0.9744478464126587,0.9673399329185486,4.59364652633667,2.7639896869659424,,,,,,
8514012000.0,140.47,3.4100000858306885,6529777152.0,3501.0246248418744,75.0,0.01563357561826706,1245184.0,1508.2242929935455,0.003513457952067256,0.03753662109375,2.322882652282715,-0.021653031930327415,0.06430649757385254,-0.023228829726576805,0.0015757940709590912,0.0,0.08058688044548035,0.347807914018631,0.8924962507902545,0.9642218351364136,0.9260633587837219,1.0448086261749268,1.0607856512069702,4.679772853851318,2.7576944828033447,,,,,,
8514012000.0,130.0,3.8499999046325684,6529777152.0,3570.6001000316014,76.0,0.016175679862499237,1261568.0,1512.8128774166107,0.006542553193867207,0.06744384765625,2.3052847385406494,-0.022686198353767395,0.11486741900444031,-0.023052848875522614,0.0003666486591100693,0.0,0.084233358502388,0.445645272731781,0.8486623962485549,1.0291292667388916,1.0000022649765015,1.1133625507354736,1.145554542541504,4.5885844230651855,2.7661166191101074,,,,,,
8514012000.0,133.15,3.7699999809265137,6529777152.0,3539.3515714335895,77.0,0.014983467757701874,1277952.0,1517.4419739246368,0.004859622567892075,0.0511474609375,2.3037521839141846,-0.020765535533428192,0.1546144336462021,-0.023037521168589592,0.002271982841193676,0.0,0.11399835348129272,0.5282158255577087,0.7871737700479622,0.9987590312957764,1.0772438049316406,1.1127574443817139,1.1449823379516602,4.629096508026123,2.7630345821380615,,,,,,
8514012000.0,151.67,5.21999979019165,6529777152.0,3485.359993767691,78.0,0.02002229541540146,1294336.0,1522.1427795886993,0.005060539580881596,0.05621337890625,2.283515453338623,-0.020147070288658142,0.10483799874782562,-0.022835154086351395,0.0026880819350481033,0.0,0.13331273198127747,0.49324384331703186,0.8578682714226098,1.2122867107391357,1.1005628108978271,1.3455994129180908,1.3083266019821167,4.7008056640625,2.767737865447998,,,,,,
8514012000.0,152.13,5.199999809265137,6529777152.0,3523.492095206794,79.0,0.01885301247239113,1310720.0,1526.7927119731903,0.004288612864911556,0.04351806640625,2.2758917808532715,-0.020621784031391144,0.09933586418628693,-0.02275891788303852,0.002137131989002228,0.0,0.13946819305419922,0.47021111845970154,0.8755134804896764,1.3670673370361328,1.137784719467163,1.506535530090332,1.332697868347168,4.649932384490967,2.775094509124756,,,,,,
8514012000.0,190.2,6.929999828338623,6529777152.0,3614.408320271415,80.0,0.021129745990037918,1327104.0,1531.325680732727,0.011066902428865433,0.11248779296875,2.301030397415161,-0.014312906190752983,0.25987738370895386,-0.02301030419766903,0.008697398006916046,0.0,0.15747034549713135,0.5641287565231323,0.8953807785447325,1.5479127168655396,1.579970121383667,1.705383062362671,1.7441041469573975,4.532968759536743,2.7570018768310547,,,,,,
8514012000.0,167.2,6.03000020980835,6529777152.0,3543.4641119429675,81.0,0.017775267362594604,1343488.0,1535.9494047164917,0.01303575187921524,0.11944580078125,2.291942834854126,-0.017262862995266914,0.23876020312309265,-0.02291942946612835,0.005656564608216286,0.0,0.11553148180246353,0.5526518225669861,0.875680846125517,1.79472815990448,1.4578769207000732,1.91025972366333,1.5674099922180176,4.623723983764648,2.774301052093506,,,,,,
8514012000.0,170.69,5.920000076293945,6529777152.0,3545.221613428609,82.0,0.020747888833284378,1359872.0,1540.5708365440369,0.004989988170564175,0.05035400390625,2.3167710304260254,-0.02158115804195404,0.21369749307632446,-0.02316770888864994,0.0015865508466959,0.0,0.07818615436553955,0.5835039615631104,0.8662392047218213,1.8060977458953857,1.3640620708465576,1.8842839002609253,1.5954362154006958,4.621431827545166,2.782080888748169,,,,,,
8514012000.0,154.71,5.409999847412109,6529777152.0,3624.648766433809,83.0,0.01871672086417675,1376256.0,1545.0909986495972,0.003725861432030797,0.0355224609375,2.3333725929260254,-0.02208252251148224,0.15014399588108063,-0.023333728313446045,0.0012512076646089554,0.0,0.11187566071748734,0.5496023893356323,0.894691749336603,1.6204681396484375,1.4563729763031006,1.7323437929153442,1.693625569343567,4.520162105560303,2.7692930698394775,,,,,,
8514012000.0,160.88,5.679999828338623,6529777152.0,3611.6485769801793,84.0,0.018883690237998962,1392640.0,1549.627431154251,0.005058986600488424,0.05780029296875,2.3456029891967773,-0.022050607949495316,0.1358373463153839,-0.02345602959394455,0.0014054244384169579,0.0,0.11204551160335541,0.5336220860481262,0.8868816441650227,1.4870176315307617,1.3751059770584106,1.5990632772445679,1.5865994691848755,4.536432504653931,2.7677903175354004,,,,,,
8514012000.0,162.93,5.119999885559082,6529777152.0,3663.2026643925356,85.0,0.01735212281346321,1409024.0,1554.1000201702118,0.00500850472599268,0.056884765625,2.334705352783203,-0.021404342725872993,0.2998929023742676,-0.023347051814198494,0.0019427081570029259,0.0,0.13912242650985718,0.7489434480667114,0.8572839665231127,1.8802096843719482,1.815818428993225,2.01933217048645,1.9824975728988647,4.472589015960693,2.767714738845825,,,,,,
8514012000.0,167.16,5.869999885559082,6529777152.0,3379.4737666843116,86.0,0.019860753789544106,1425408.0,1558.9481122493744,0.006724949926137924,0.0811767578125,2.343019485473633,-0.020724648609757423,0.2502513527870178,-0.023430194705724716,0.0027055498212575912,0.0,0.06909872591495514,0.7036252021789551,0.856627664722037,1.8813157081604004,1.7814452648162842,1.9504144191741943,1.858269453048706,4.848092079162598,2.8763229846954346,,,,,,
8514012000.0,166.74,4.389999866485596,6529777152.0,3533.3603137680757,87.0,0.017712712287902832,1441792.0,1563.5850579738617,0.004682654049247503,0.04791259765625,2.339369773864746,-0.02162281982600689,0.22640125453472137,-0.023393698036670685,0.0017708777450025082,0.0,-0.024607539176940918,0.6605090498924255,0.846309722207463,2.1975584030151367,1.6280580759048462,2.1729509830474854,1.684828281402588,4.636945724487305,2.7714955806732178,,,,,,
8514012000.0,170.35,5.539999961853027,6529777152.0,3677.308023929012,88.0,0.016992755234241486,1458176.0,1568.040491104126,0.005130362696945667,0.056640625,2.2931387424468994,-0.022875353693962097,0.19832679629325867,-0.022931387647986412,5.603162571787834e-05,0.0,0.06515900790691376,0.641476035118103,0.8677340965426958,2.248526096343994,1.6653110980987549,2.3136849403381348,1.763828992843628,4.455433130264282,2.7656238079071045,,,,,,
8514012000.0,185.65,6.5,6529777152.0,3479.3549562983717,89.0,0.01896754279732704,1474560.0,1572.7494099140167,0.005599809344857931,0.06134033203125,2.30491304397583,-0.019725855439901352,0.19488759338855743,-0.023049132898449898,0.0033232765272259712,0.0,0.0465821735560894,0.6556087732315063,0.8831546945219982,2.700105667114258,1.7617260217666626,2.746687889099121,1.9179580211639404,4.708918809890747,2.774548053741455,,,,,,
8514012000.0,210.39,8.229999542236328,6529777152.0,3497.503670116525,90.0,0.02208523452281952,1490944.0,1577.433893918991,0.007895302958786488,0.078857421875,2.255424976348877,-0.016894225031137466,0.20092207193374634,-0.022554250434041023,0.005660025402903557,0.0,0.06319166719913483,0.6308992505073547,0.9109692289538794,2.851783514022827,1.983329176902771,2.914975166320801,2.1144134998321533,4.684484004974365,2.9070076942443848,,,,,,
8514012000.0,203.54,6.75,6529777152.0,3489.0099278116722,91.0,0.019390251487493515,1507328.0,1582.129781961441,0.005137387663125992,0.05072021484375,2.2988338470458984,-0.021672828122973442,0.17897574603557587,-0.022988341748714447,0.0013155131600797176,0.0,0.057655006647109985,0.615875244140625,0.9182356655626318,2.6955623626708984,1.974633812904358,2.7532172203063965,2.1538264751434326,4.695888042449951,2.7623789310455322,,,,,,
8514012000.0,190.94,6.820000171661377,6529777152.0,3563.6909984638987,92.0,0.018628668040037155,1523712.0,1586.7272624969482,0.006773102097213268,0.07049560546875,2.2522988319396973,-0.02021167427301407,0.17331483960151672,-0.02252298593521118,0.0023113172501325607,0.0,0.019497418776154518,0.5865892767906189,0.9203266755446705,2.6216325759887695,2.0013415813446045,2.641129970550537,2.078153610229492,4.597480535507202,2.7661211490631104,,,,,,
8514012000.0,181.76,6.059999942779541,6529777152.0,3489.4200626018505,93.0,0.01916079968214035,1540096.0,1591.4225986003876,0.010974081233143806,0.079833984375,2.234238624572754,-0.01920390874147415,0.16662684082984924,-0.022342385724186897,0.0031384769827127457,0.0,0.029368214309215546,0.5781181454658508,0.9255974620332964,2.5048229694366455,2.008141040802002,2.534191131591797,2.119447946548462,4.695336103439331,2.776283025741577,,,,,,
8514012000.0,214.73,7.960000038146973,6529777152.0,3445.766187439776,94.0,0.022069256752729416,1556480.0,1596.1774191856384,0.009457835927605629,0.09271240234375,2.1798095703125,-0.018318528309464455,0.18831458687782288,-0.021798094734549522,0.0034795673564076424,0.0,0.13920807838439941,0.6341113448143005,0.9187183937716508,2.675177574157715,2.082134246826172,2.8143858909606934,2.224177122116089,4.7548205852508545,2.793119430541992,,,,,,
8514172000.0,220.14,8.989999771118164,6529777152.0,3587.3595113386114,95.0,0.021228376775979996,1572864.0,1600.7445666790009,0.007670225575566292,0.09576416015625,2.221247434616089,-0.01907453127205372,0.1937161087989807,-0.022212475538253784,0.0031379414722323418,0.0,0.12955895066261292,0.610389769077301,0.9178722795994314,2.613243341445923,2.0129334926605225,2.742802143096924,2.129915475845337,4.567147493362427,2.8137733936309814,,,,,,
,,,,,,,,,,,,,,,,,,,,,,,,,,0.05134308338165283,0.6367725729942322,0.5512793064117432,0.05134308338165283,0.6367725729942322,0.5512793064117432
,,,,,,,,,,,,,,,,,,,,,,,,,,0.023799080401659012,0.4627276659011841,0.44827544689178467,0.023799080401659012,0.4627276659011841,0.44827544689178467
,,,,,,,,,,,,,,,,,,,,,,,,,,0.0217781662940979,0.4411954879760742,0.43694576621055603,0.0217781662940979,0.4411954879760742,0.43694576621055603
,,,,,,,,,,,,,,,,,,,,,,,,,,0.018505733460187912,0.4232787787914276,0.4194391667842865,0.018505733460187912,0.4232787787914276,0.4194391667842865
,,,,,,,,,,,,,,,,,,,,,,,,,,0.016905158758163452,0.41694873571395874,0.4137287139892578,0.016905158758163452,0.41694873571395874,0.4137287139892578
,,,,,,,,,,,,,,,,,,,,,,,,,,0.015699779614806175,0.4110385775566101,0.40656182169914246,0.015699779614806175,0.4110385775566101,0.40656182169914246
8514436000.0,214.36,7.739999771118164,6327188480.0,28.169172001563968,96.0,0.019932040944695473,1589248.0,2182.3733060359955,0.003912057727575302,0.02789306640625,2.225724697113037,-0.021381735801696777,0.16812393069267273,-0.0222572460770607,0.0008755084127187729,0.0,0.13332143425941467,0.5913537740707397,0.9052518671179469,2.060176372528076,1.7706693410873413,2.193497896194458,1.9211533069610596,581.6287393569946,2.824091672897339,,,,,,
8514436000.0,210.87,7.409999847412109,6529777152.0,3428.06956539958,97.0,0.018799712881445885,1605632.0,2187.152672290802,0.004291931167244911,0.039794921875,2.2031400203704834,-0.01970728114247322,0.14022321999073029,-0.022031400352716446,0.002324117347598076,0.0,0.149949848651886,0.5491827130317688,0.9194123468094043,2.226292610168457,1.7595462799072266,2.3762423992156982,1.9345616102218628,4.7793662548065186,2.854370355606079,,,,,,
8514436000.0,217.88,8.140000343322754,6529777152.0,3561.064599354122,98.0,0.023339727893471718,1622016.0,2191.753543615341,0.0041479067876935005,0.046630859375,2.195542812347412,-0.02085076831281185,0.24692778289318085,-0.021955426782369614,0.0011046617291867733,0.0,0.1366925835609436,0.7259267568588257,0.9126964729954625,2.945858955383301,2.360053062438965,3.0825514793395996,2.4568402767181396,4.600871324539185,2.7827582359313965,,,,,,
8514436000.0,238.15,9.550000190734863,6529777152.0,3549.3413982641873,99.0,0.01867586374282837,1638400.0,2196.369611263275,0.005844307132065296,0.0450439453125,2.1884403228759766,-0.017973914742469788,0.21617533266544342,-0.021884402260184288,0.00391048938035965,0.0,0.14907854795455933,0.6628575325012207,0.9043505567174855,2.8696787357330322,2.001950263977051,3.0187573432922363,2.143280506134033,4.61606764793396,2.752631425857544,,,,,,
8514436000.0,254.45,10.020000457763672,6529777152.0,3583.169545955464,100.0,0.02153567224740982,1654784.0,2200.9420993328094,0.004701150115579367,0.0550537109375,2.1769466400146484,-0.019609874114394188,0.22845469415187836,-0.021769465878605843,0.002159592229872942,0.0,0.15264832973480225,0.7027873396873474,0.9027108956272196,3.1522579193115234,2.124415636062622,3.3049063682556152,2.253159284591675,4.572488069534302,2.748164653778076,,,,,,
8514436000.0,248.45,9.029999732971191,6529777152.0,3606.5728472645183,101.0,0.022119423374533653,1671168.0,2205.4849162101746,0.004606178496032953,0.04998779296875,2.1737892627716064,-0.01839207485318184,0.22525885701179504,-0.02173789218068123,0.003345821052789688,0.0,0.12404774129390717,0.6797175407409668,0.9083760302992135,3.299654006958008,2.139958620071411,3.423701763153076,2.245556354522705,4.542816877365112,2.7435972690582275,,,,,,
8514436000.0,251.51,9.630000114440918,6529777152.0,3605.0709515576445,102.0,0.020898057147860527,1687552.0,2210.0296256542206,0.004150703549385071,0.044677734375,2.1700005531311035,-0.01992960460484028,0.24343259632587433,-0.02170000597834587,0.0017704013735055923,0.0,0.14318618178367615,0.7186879515647888,0.9160437709562821,3.876530885696411,2.3926126956939697,4.019717216491699,2.480355739593506,4.5447094440460205,2.7616021633148193,,,,,,
8514436000.0,286.54,12.319999694824219,6529777152.0,3532.734189801702,103.0,0.025261271744966507,1703936.0,2214.66739320755,0.0037354202941060066,0.03448486328125,2.188610076904297,-0.020049795508384705,0.23956359922885895,-0.021886099129915237,0.0018363036215305328,0.0,0.17989107966423035,0.6838185787200928,0.9135206887021388,3.668030261993408,2.2091469764709473,3.847921371459961,2.325330972671509,4.637767553329468,2.74564528465271,,,,,,
8514436000.0,262.35,12.960000038146973,6529777152.0,3559.457283053648,104.0,0.029383253306150436,1720320.0,2219.2703421115875,0.0038593467324972153,0.03924560546875,2.220527172088623,-0.020705116912722588,0.2304069846868515,-0.02220527082681656,0.0015001483261585236,0.0,0.21198244392871857,0.6774590015411377,0.9219339081272216,3.619243621826172,2.253432512283325,3.831225872039795,2.4246649742126465,4.602948904037476,2.747297525405884,,,,,,
8514436000.0,251.12,11.140000343322754,6529777152.0,3513.0596756928417,105.0,0.020385339856147766,1736704.0,2223.9340829849243,0.003667015815153718,0.0328369140625,2.22324800491333,-0.021430235356092453,0.21837429702281952,-0.022232478484511375,0.000802244059741497,0.0,0.13313047587871552,0.6516461372375488,0.9108578880665463,3.35368013381958,1.981552243232727,3.4868102073669434,2.1825809478759766,4.663740873336792,2.7476565837860107,,,,,,
8514436000.0,278.52,10.199999809265137,6529777152.0,3545.1001738825034,106.0,0.01916508376598358,1753088.0,2228.555673122406,0.0041018589399755,0.04144287109375,2.2382688522338867,-0.020733729004859924,0.26300641894340515,-0.022382687777280807,0.0016489606350660324,0.0,0.08740581572055817,0.7502387762069702,0.9033193908262118,3.658958911895752,2.3134407997131348,3.7463650703430176,2.4128475189208984,4.6215901374816895,2.7575340270996094,,,,,,
8514436000.0,301.52,12.65999984741211,6529777152.0,3569.3843973187236,107.0,0.0264848992228508,1769472.0,2233.145820379257,0.00518807303160429,0.0511474609375,2.228971242904663,-0.018814098089933395,0.2483050376176834,-0.022289711982011795,0.0034756138920783997,0.0,0.19575873017311096,0.7131316661834717,0.9188250207892552,4.018298149108887,2.383765459060669,4.214056491851807,2.5029866695404053,4.590147256851196,2.7463319301605225,,,,,,
8514436000.0,289.47,13.34000015258789,6529777152.0,3532.825179241348,108.0,0.024535445496439934,1785856.0,2237.7834684848785,0.003408476710319519,0.03387451171875,2.2379379272460938,-0.0216679647564888,0.27874115109443665,-0.022379377856850624,0.0007114161271601915,0.0,0.1570451855659485,0.7593582272529602,0.9041143892713535,3.862520217895508,2.3201076984405518,4.019565582275391,2.4522790908813477,4.637648105621338,2.7588770389556885,,,,,,
8514436000.0,277.48,12.180000305175781,6529777152.0,3576.0135677235885,109.0,0.025241415947675705,1802240.0,2242.3651065826416,0.005311359651386738,0.05401611328125,2.2170658111572266,-0.021430835127830505,0.29786166548728943,-0.02217065915465355,0.0007398268207907677,0.0,0.13828045129776,0.7537967562675476,0.8956258244738898,3.965609073638916,2.2077810764312744,4.103889465332031,2.333230972290039,4.5816380977630615,2.7423899173736572,,,,,,
8514436000.0,304.68,14.25,6529777152.0,3511.1823084932325,110.0,0.02395235374569893,1818624.0,2247.031341075897,0.005225466098636389,0.0465087890625,2.2054195404052734,-0.01980372704565525,0.32438361644744873,-0.022054193541407585,0.002250468358397484,0.0,0.20478057861328125,0.7851924300193787,0.9093752180497668,4.073492050170898,2.46744704246521,4.27827262878418,2.6082704067230225,4.666234493255615,2.753810405731201,,,,,,
8514436000.0,312.23,15.010000228881836,6529777152.0,3593.0952197352362,111.0,0.025241367518901825,1835008.0,2251.5911979675293,0.0033361813984811306,0.03045654296875,2.2115256786346436,-0.019678274169564247,0.20232397317886353,-0.022115256637334824,0.0024369852617383003,0.0,0.14882275462150574,0.6293433308601379,0.9327425325711208,3.9485177993774414,2.2607879638671875,4.0973405838012695,2.4267072677612305,4.55985689163208,2.7552261352539062,,,,,,
8514436000.0,298.38,14.819999694824219,6529777152.0,3595.181976658867,112.0,0.02657073363661766,1851392.0,2256.1484081745148,0.003132985671982169,0.0267333984375,2.1919901371002197,-0.020541630685329437,0.2620009779930115,-0.02191990055143833,0.0013782726600766182,0.0,0.1922670304775238,0.7185386419296265,0.9193372464745593,4.474159240722656,2.3986339569091797,4.666426181793213,2.5299594402313232,4.557210206985474,2.748518466949463,,,,,,
8514436000.0,315.38,16.280000686645508,6529777152.0,3500.797045451512,113.0,0.026788856834173203,1867776.0,2260.828485250473,0.006316044367849827,0.05462646484375,2.228518486022949,-0.02021586336195469,0.2905423641204834,-0.022285185754299164,0.002069322392344475,0.0,0.20172801613807678,0.7365250587463379,0.9148777706946212,4.302976608276367,2.399779796600342,4.50470495223999,2.5244462490081787,4.680077075958252,2.7709193229675293,,,,,,
8514436000.0,327.56,16.450000762939453,6529777152.0,3544.4378895455616,114.0,0.02756069228053093,1884160.0,2265.450938940048,0.005437186453491449,0.05126953125,2.2046971321105957,-0.02006138116121292,0.37556082010269165,-0.022046972066164017,0.001985592534765601,0.0,0.19209837913513184,0.8402325510978699,0.8911694198505034,4.239588737487793,2.4852824211120605,4.431687355041504,2.546971082687378,4.622453689575195,2.7635319232940674,,,,,,
8514436000.0,318.54,15.710000038146973,6529777152.0,3496.2664268917847,115.0,0.027774663642048836,1900544.0,2270.137080669403,0.003931447863578796,0.04254150390625,2.2074384689331055,-0.020577404648065567,0.25983938574790955,-0.0220743827521801,0.0014969762414693832,0.0,0.18100744485855103,0.7211511731147766,0.9115587628818855,4.674999713897705,2.2782795429229736,4.856007099151611,2.4249281883239746,4.686141729354858,2.770648717880249,,,,,,
8514436000.0,322.2,16.040000915527344,6529777152.0,3543.0082945281088,116.0,0.024467727169394493,1916928.0,2274.7613995075226,0.004533736035227776,0.0506591796875,2.206663131713867,-0.02038487046957016,0.29800349473953247,-0.02206663228571415,0.0016817618161439896,0.0,0.19001410901546478,0.7682258486747742,0.9153313623175792,4.886666774749756,2.525987386703491,5.076681137084961,2.6401443481445312,4.624318838119507,2.7710461616516113,,,,,,
8514436000.0,326.31,15.710000038146973,6529777152.0,3522.8786739439206,117.0,0.026141013950109482,1933312.0,2279.412141561508,0.0025203244294971228,0.01904296875,2.183692216873169,-0.021274901926517487,0.25551000237464905,-0.02183692343533039,0.0005620196461677551,0.0,0.06866338849067688,0.7219095230102539,0.9184981355832128,4.851764678955078,2.442253589630127,4.920428276062012,2.528709888458252,4.650742053985596,2.7761282920837402,,,,,,
8514436000.0,337.26,16.3700008392334,6529777152.0,3537.5086481471462,118.0,0.026360847055912018,1949696.0,2284.043649673462,0.0037302125710994005,0.03277587890625,2.177581787109375,-0.021373197436332703,0.26485106348991394,-0.02177581563591957,0.00040261726826429367,0.0,0.22439168393611908,0.7105589509010315,0.9250374022602779,5.1721601486206055,2.5168042182922363,5.396552085876465,2.595242738723755,4.631508111953735,2.760141372680664,,,,,,
8514436000.0,340.21,17.559999465942383,6529777152.0,3508.678748043649,119.0,0.02973213791847229,1966080.0,2288.7132136821747,0.0040671732276678085,0.036865234375,2.1598684787750244,-0.018841451033949852,0.2575032114982605,-0.021598683670163155,0.0027572326362133026,0.0,0.1888820230960846,0.701964795589447,0.9321935308295158,5.095253944396973,2.5826241970062256,5.284135818481445,2.6957504749298096,4.6695640087127686,2.768191337585449,,,,,,
8514436000.0,335.7,18.530000686645508,6529777152.0,3607.6003739501552,120.0,0.027431895956397057,1982464.0,2293.254736661911,0.005605107173323631,0.0546875,2.1540913581848145,-0.019664105027914047,0.24283906817436218,-0.021540915593504906,0.0018768105655908585,0.0,0.24747367203235626,0.6710830926895142,0.9353561413939955,5.350193977355957,2.5478150844573975,5.597667694091797,2.639444589614868,4.541522979736328,2.7616662979125977,,,,,,
8514436000.0,341.68,19.0,6529777152.0,3629.1404631171267,121.0,0.030914483591914177,1998848.0,2297.7693042755127,0.002528918907046318,0.02142333984375,2.1540005207061768,-0.019911177456378937,0.31138721108436584,-0.021540004760026932,0.0016288282349705696,0.0,0.1771634817123413,0.7724663019180298,0.913883578437265,5.32907772064209,2.548679828643799,5.5062408447265625,2.6323065757751465,4.514567613601685,2.79195237159729,,,,,,
8514436000.0,362.72,19.1200008392334,6529777152.0,3512.7407461553676,122.0,0.027816476300358772,2015232.0,2302.433468580246,0.004711042158305645,0.041015625,2.160118341445923,-0.019375896081328392,0.2763056755065918,-0.021601181477308273,0.002225288189947605,0.0,0.19559161365032196,0.7077139616012573,0.912462449049987,5.256954193115234,2.3328263759613037,5.452545642852783,2.391995668411255,4.664164304733276,2.7770438194274902,,,,,,
8514436000.0,351.52,18.350000381469727,6529777152.0,3466.3695649224132,123.0,0.027169562876224518,2031616.0,2307.1600275039673,0.005456556566059589,0.043701171875,2.1522514820098877,-0.013604115694761276,0.2966442108154297,-0.021522516384720802,0.007918398827314377,0.0,0.12470114976167679,0.7439908385276794,0.9042959319395935,5.14290714263916,2.3235325813293457,5.267608165740967,2.4049291610717773,4.7265589237213135,2.788891553878784,,,,,,
8514436000.0,337.29,17.329999923706055,6529777152.0,3507.9922153833777,124.0,0.024051206186413765,2048000.0,2311.8305053710938,0.01745864562690258,0.1024169921875,2.142808437347412,-0.00948867667466402,0.2806960344314575,-0.02142808400094509,0.011939410120248795,0.0,0.13510139286518097,0.7488351464271545,0.8878630780509799,4.881317138671875,2.1050491333007812,5.01641845703125,2.2362060546875,4.670477867126465,2.765346050262451,,,,,,
8514436000.0,343.29,15.4399995803833,6529777152.0,3423.0758581203954,125.0,0.025609880685806274,2064384.0,2316.6168439388275,0.007293941453099251,0.0589599609375,2.139096736907959,-0.016421575099229813,0.40990081429481506,-0.021390968933701515,0.004969393834471703,0.0,0.07493814080953598,0.9201684594154358,0.8282008264769449,5.17308235168457,2.07922625541687,5.248020172119141,2.2200193405151367,4.786338567733765,2.760213851928711,,,,,,
8514436000.0,327.26,14.460000038146973,6529777152.0,3516.478153585195,126.0,0.02369934692978859,2080768.0,2321.276051044464,0.0067060901783406734,0.06402587890625,2.1170907020568848,-0.01769857108592987,0.3268837034702301,-0.021170906722545624,0.0034723319113254547,0.0,0.13482142984867096,0.762555718421936,0.8933315363344897,5.592350006103516,2.1756062507629395,5.727171421051025,2.3348209857940674,4.659207105636597,2.825681209564209,,,,,,
8514436000.0,325.89,16.18000030517578,6529777152.0,3525.517757211873,127.0,0.025834407657384872,2097152.0,2325.9233117103577,0.005090363323688507,0.05010986328125,2.1427905559539795,-0.01925276219844818,0.34828293323516846,-0.021427903324365616,0.002175144851207733,0.0,0.08135809004306793,0.7996280193328857,0.8721705665787886,5.390170097351074,2.1256518363952637,5.471528053283691,2.2365190982818604,4.647260665893555,2.7782974243164062,,,,,,
,,,,,,,,,,,,,,,,,,,,,,,,,,0.04377061128616333,1.1158745288848877,0.9714494943618774,0.04377061128616333,1.1158745288848877,0.9714494943618774
,,,,,,,,,,,,,,,,,,,,,,,,,,0.02592838741838932,0.82523113489151,0.7945222854614258,0.02592838741838932,0.82523113489151,0.7945222854614258
,,,,,,,,,,,,,,,,,,,,,,,,,,0.022957907989621162,0.7816801071166992,0.7630783915519714,0.022957907989621162,0.7816801071166992,0.7630783915519714
,,,,,,,,,,,,,,,,,,,,,,,,,,0.021357467398047447,0.7719022631645203,0.7546588182449341,0.021357467398047447,0.7719022631645203,0.7546588182449341
,,,,,,,,,,,,,,,,,,,,,,,,,,0.019555874168872833,0.7525387406349182,0.7452787160873413,0.019555874168872833,0.7525387406349182,0.7452787160873413
,,,,,,,,,,,,,,,,,,,,,,,,,,0.01928451471030712,0.7387295365333557,0.7363550066947937,0.01928451471030712,0.7387295365333557,0.7363550066947937
8514436000.0,344.33,17.290000915527344,6327188480.0,28.194915729846873,128.0,0.024921350181102753,2113536.0,2907.020987510681,0.0017882968531921506,0.01422119140625,2.1739163398742676,-0.02134699933230877,0.21118991076946259,-0.021739164367318153,0.00039216410368680954,0.0,0.2416553497314453,0.637046217918396,0.9243427542175413,4.266238212585449,2.1992223262786865,4.5078935623168945,2.316037893295288,581.0976758003235,2.7909300327301025,,,,,,
8514436000.0,359.93,18.399999618530273,6529777152.0,3491.2238507273,129.0,0.02878536656498909,2129920.0,2911.713897705078,0.0028019300661981106,0.0233154296875,2.184065341949463,-0.021157830953598022,0.21811944246292114,-0.02184065245091915,0.0006828214973211288,0.0,0.23337464034557343,0.6618193984031677,0.9237629567471861,4.902703285217285,2.2842326164245605,5.136077880859375,2.3969368934631348,4.692910194396973,2.8216521739959717,,,,,,
8514436000.0,349.29,18.06999969482422,6529777152.0,3528.2526383670106,130.0,0.02844826504588127,2146304.0,2916.35755610466,0.002957863500341773,0.030517578125,2.183089256286621,-0.020137764513492584,0.24722698330879211,-0.02183089219033718,0.0016931230202317238,0.0,0.19466692209243774,0.6930885910987854,0.9268211595866973,5.084858417510986,2.454111099243164,5.279525279998779,2.562098503112793,4.643658399581909,2.77506422996521,,,,,,
8514436000.0,328.17,16.549999237060547,6529777152.0,3626.3974156550107,131.0,0.025688588619232178,2162688.0,2920.87553858757,0.004176251590251923,0.0377197265625,2.1536974906921387,-0.01999768614768982,0.2643137574195862,-0.021536974236369133,0.0015392918139696121,0.0,0.1261918544769287,0.7220366597175598,0.9152753685748913,5.089659214019775,2.417897939682007,5.215851306915283,2.4805874824523926,4.517982482910156,2.7484817504882812,,,,,,
8514436000.0,352.3,18.1200008392334,6529777152.0,3564.676666062002,132.0,0.027141977101564407,2179072.0,2925.4717478752136,0.0036104214377701283,0.04364013671875,2.1600630283355713,-0.021232886239886284,0.25139665603637695,-0.0216006301343441,0.0003677438944578171,0.0,0.20580542087554932,0.7127829790115356,0.9192036191422357,5.768777847290039,2.467374086380005,5.974583625793457,2.5076191425323486,4.596209287643433,2.759491443634033,,,,,,
8514436000.0,371.31,19.540000915527344,6529777152.0,3609.050926659241,133.0,0.030156049877405167,2195456.0,2930.0114455223083,0.003787765745073557,0.03839111328125,2.168144702911377,-0.020138321444392204,0.22420798242092133,-0.021681448444724083,0.0015431270003318787,0.0,0.17724670469760895,0.6527630686759949,0.928713806441249,5.630186080932617,2.3886964321136475,5.807433128356934,2.444854497909546,4.539697647094727,2.7546122074127197,,,,,,
8514436000.0,356.4,19.239999771118164,6529777152.0,3617.7692753234987,134.0,0.02851620316505432,2211840.0,2934.5402030944824,0.0019122189842164516,0.016845703125,2.1620688438415527,-0.020891491323709488,0.23377811908721924,-0.02162068523466587,0.000729195773601532,0.0,0.1792156994342804,0.682420015335083,0.9158535852833022,5.760814666748047,2.262085437774658,5.940030097961426,2.3525233268737793,4.528757572174072,2.7463345527648926,,,,,,
8514436000.0,365.03,20.190000534057617,6529777152.0,3502.9382819068137,135.0,0.02762017957866192,2228224.0,2939.21741938591,0.00265905587002635,0.02532958984375,2.150378942489624,-0.020843002945184708,0.21611785888671875,-0.021503791213035583,0.0006607878021895885,0.0,0.21797999739646912,0.643302321434021,0.9187647320799844,6.184731483459473,2.226499557495117,6.402711391448975,2.2570576667785645,4.677216291427612,2.75659441947937,,,,,,
8514436000.0,382.48,22.520000457763672,6529777152.0,3523.78677953536,136.0,0.03377052769064903,2244608.0,2943.8669629096985,0.0024544717743992805,0.01995849609375,2.1345598697662354,-0.021122939884662628,0.22953848540782928,-0.0213455967605114,0.0002226606011390686,0.0,0.17550210654735565,0.6625303030014038,0.9053806796393862,6.572944164276123,2.1136322021484375,6.748446464538574,2.153852701187134,4.649543523788452,2.7568509578704834,,,,,,
8514436000.0,393.62,23.34000015258789,6529777152.0,3597.3700227386717,137.0,0.02752494253218174,2260992.0,2948.4214012622833,0.0022685930598527193,0.018798828125,2.1292471885681152,-0.02083943597972393,0.191307932138443,-0.021292472258210182,0.00045303627848625183,0.0,0.221260666847229,0.611377477645874,0.922121716120501,6.319962501525879,2.149529457092285,6.541223526000977,2.1907923221588135,4.554438352584839,2.750957489013672,,,,,,
8514436000.0,393.37,22.40999984741211,6529777152.0,3502.989350923041,138.0,0.03175460547208786,2277376.0,2953.0985493659973,0.002697919961065054,0.02142333984375,2.1410646438598633,-0.02176155149936676,0.22812829911708832,-0.021410644054412842,-0.0003509055823087692,0.0,0.14254456758499146,0.6707949042320251,0.9023191800898771,6.504293441772461,2.0691239833831787,6.646838188171387,2.1462738513946533,4.677148103713989,2.7426981925964355,,,,,,
8514436000.0,372.03,20.959999084472656,6529777152.0,3583.9895592039998,139.0,0.032607533037662506,2293760.0,2957.6699912548065,0.002931175986304879,0.0234375,2.120042085647583,-0.021563537418842316,0.21486970782279968,-0.02120042033493519,-0.000363118015229702,0.0,0.142830953001976,0.6456279754638672,0.9209796119488077,6.8184003829956055,2.27114200592041,6.961231231689453,2.296743869781494,4.571441888809204,2.7583978176116943,,,,,,
8514436000.0,361.56,20.479999542236328,6529777152.0,3498.7738535127787,140.0,0.02620670571923256,2310144.0,2962.352774620056,0.0037552211433649063,0.03790283203125,2.1321823596954346,-0.02089529111981392,0.21832920610904694,-0.021321821957826614,0.00042653270065784454,0.0,0.11789204180240631,0.6550024151802063,0.9156262860967532,6.272642135620117,2.132887601852417,6.390533924102783,2.254962682723999,4.682783365249634,2.759765625,,,,,,
8514436000.0,367.07,20.239999771118164,6529777152.0,3608.3825347284524,141.0,0.03144250810146332,2326528.0,2966.8933131694794,0.0029277149587869644,0.02740478515625,2.1306424140930176,-0.01847759634256363,0.24024271965026855,-0.02130642533302307,0.002828827127814293,0.0,0.13982254266738892,0.6915610432624817,0.9017883483260996,6.713464260101318,2.1362385749816895,6.8532867431640625,2.20672869682312,4.540538549423218,2.757209539413452,,,,,,
8514436000.0,373.4,21.68000030517578,6529777152.0,3501.6370601983995,142.0,0.032783351838588715,2342912.0,2971.5722675323486,0.006938169710338116,0.06402587890625,2.1364235877990723,-0.017059573903679848,0.19622403383255005,-0.021364236250519753,0.004304662346839905,0.0,0.17998738586902618,0.6203195452690125,0.9316832340664221,6.941432952880859,2.2912371158599854,7.121420383453369,2.373295783996582,4.678954362869263,2.756911277770996,,,,,,
8514436000.0,373.63,22.170000076293945,6529777152.0,3450.228975345988,143.0,0.029033318161964417,2359296.0,2976.320937871933,0.0051544662564992905,0.05780029296875,2.1596498489379883,-0.01858408749103546,0.171357199549675,-0.021596496924757957,0.0030124150216579437,0.0,0.1478932797908783,0.5762511491775513,0.9400140348189929,7.0798540115356445,2.2646257877349854,7.227746963500977,2.3528099060058594,4.748670339584351,2.753666877746582,,,,,,
8514436000.0,386.71,23.889999389648438,6529777152.0,3614.7513030588593,144.0,0.03287582844495773,2375680.0,2980.853476524353,0.0022284826263785362,0.01904296875,2.148381471633911,-0.020159931853413582,0.19132637977600098,-0.02148381434381008,0.0013238880783319473,0.0,0.1801784485578537,0.5912586450576782,0.933678428627106,6.728936195373535,2.265540599822998,6.909114360809326,2.295884847640991,4.532538652420044,2.7531986236572266,,,,,,
8514436000.0,383.07,22.81999969482422,6529777152.0,3589.3807391485434,145.0,0.0288722924888134,2392064.0,2985.4180521965027,0.004614395089447498,0.03607177734375,2.141847610473633,-0.020098157227039337,0.2112242579460144,-0.02141847461462021,0.0013203192502260208,0.0,0.16800786554813385,0.6139401197433472,0.9166741745096105,7.0161285400390625,2.0953304767608643,7.184135913848877,2.126845359802246,4.564575672149658,2.7503840923309326,,,,,,
8514436000.0,384.82,22.8799991607666,6529777152.0,3535.144357679905,146.0,0.03625829517841339,2408448.0,2990.052657842636,0.003959175199270248,0.03753662109375,2.145371437072754,-0.019830284640192986,0.21380111575126648,-0.02145371399819851,0.0016234274953603745,0.0,0.14862927794456482,0.6164736151695251,0.9363989435153324,6.95337438583374,2.3622148036956787,7.10200309753418,2.444455623626709,4.634605646133423,2.7579867839813232,,,,,,
8514436000.0,389.14,23.299999237060547,6529777152.0,3530.079762122593,147.0,0.027785923331975937,2424832.0,2994.693912744522,0.003385756630450487,0.03497314453125,2.1577656269073486,-0.02016826719045639,0.21278226375579834,-0.021577656269073486,0.001409389078617096,0.0,0.10680505633354187,0.616409420967102,0.9323022954196445,7.033929824829102,2.3270950317382812,7.140735149383545,2.3690948486328125,4.641254901885986,2.7658910751342773,,,,,,
8514436000.0,390.22,22.469999313354492,6529777152.0,3518.6586197731176,148.0,0.031130611896514893,2441216.0,2999.3502326011658,0.004579562693834305,0.04656982421875,2.134063959121704,-0.019301947206258774,0.2658783197402954,-0.021340640261769295,0.0020386921241879463,0.0,0.08875530958175659,0.6921939849853516,0.909938408689196,7.214033126831055,2.2580010890960693,7.302788734436035,2.306523323059082,4.656319856643677,2.7999203205108643,,,,,,
8514436000.0,390.31,22.219999313354492,6529777152.0,3541.7189391667002,149.0,0.026431944221258163,2457600.0,3003.9762349128723,0.003042603377252817,0.028564453125,2.1437935829162598,-0.0200849249958992,0.2393072545528412,-0.021437937393784523,0.0013530068099498749,0.0,0.11309460550546646,0.6694700717926025,0.9105531766231305,7.090353488922119,2.2125213146209717,7.2034478187561035,2.2384564876556396,4.626002311706543,2.7725086212158203,,,,,,
8514436000.0,397.8,21.6299991607666,6529777152.0,3586.589057688574,150.0,0.026832446455955505,2473984.0,3008.5443634986877,0.0059678927063941956,0.0654296875,2.1455235481262207,-0.02002556622028351,0.21237006783485413,-0.02145523577928543,0.001429667230695486,0.0,0.0902673751115799,0.6355226635932922,0.9041831766678828,7.308945655822754,2.003645181655884,7.399212837219238,2.053100824356079,4.56812858581543,2.760399341583252,,,,,,
8514436000.0,394.22,21.489999771118164,6529777152.0,3407.70961173832,151.0,0.031130976974964142,2490368.0,3013.3522849082947,0.0029411637224256992,0.025634765625,2.0966954231262207,-0.01956535503268242,0.2768170237541199,-0.02096695639193058,0.0014015985652804375,0.0,0.08529755473136902,0.73838210105896,0.8730967427341145,7.7572784423828125,2.0024056434631348,7.842576026916504,2.0727391242980957,4.807921409606934,2.8684568405151367,,,,,,
8514436000.0,394.8,22.399999618530273,6529777152.0,3530.4923546431232,152.0,0.0321415513753891,2506752.0,3017.992997407913,0.0032288182992488146,0.036376953125,2.0701732635498047,-0.020202133804559708,0.18380126357078552,-0.020701730623841286,0.0004995968192815781,0.0,0.12431520223617554,0.59742671251297,0.9110104050685296,8.053661346435547,1.971855640411377,8.17797565460205,2.0026943683624268,4.64071249961853,2.751471996307373,,,,,,
8514436000.0,399.35,24.459999084472656,6529777152.0,3510.287859383908,153.0,0.03355436027050018,2523136.0,3022.660420894623,0.0027715303003787994,0.02593994140625,2.0702996253967285,-0.019821099936962128,0.16267426311969757,-0.020702997222542763,0.0008818963542580605,0.0,0.08918128162622452,0.5679160356521606,0.9358968124652188,7.9005231857299805,2.2018799781799316,7.9897050857543945,2.243079662322998,4.667423486709595,2.7601606845855713,,,,,,
8514436000.0,401.06,24.860000610351562,6529777152.0,3508.753991021055,154.0,0.03017713502049446,2539520.0,3027.3298847675323,0.003811093745753169,0.03631591796875,2.0843169689178467,-0.01930283010005951,0.1709953397512436,-0.02084316872060299,0.0015403414145112038,0.0,0.06686273217201233,0.5920315384864807,0.9293089131046761,8.004253387451172,2.2073705196380615,8.071115493774414,2.226703643798828,4.669463872909546,2.7605671882629395,,,,,,
8514436000.0,389.69,22.760000228881836,6529777152.0,3566.213375768413,155.0,0.03079085424542427,2555904.0,3031.924113512039,0.003667886834591627,0.0311279296875,2.0954301357269287,-0.019551431760191917,0.1908392310142517,-0.020954301580786705,0.0014028716832399368,0.0,0.06764555722475052,0.6198310256004333,0.9084650028807567,7.951578140258789,1.9465553760528564,8.0192232131958,2.0487046241760254,4.594228744506836,2.7637319564819336,,,,,,
8514436000.0,390.45,23.34000015258789,6529777152.0,3500.446459876591,156.0,0.030723830685019493,2572288.0,3036.604659318924,0.0037987809628248215,0.033203125,2.079251289367676,-0.01942153461277485,0.1927071213722229,-0.020792514085769653,0.0013709776103496552,0.0,0.10989369451999664,0.6204627156257629,0.9221185662689405,8.260597229003906,2.1870670318603516,8.370491027832031,2.2233047485351562,4.680545806884766,2.772796154022217,,,,,,
8514436000.0,395.38,23.610000610351562,6529777152.0,3517.2428995118303,157.0,0.031335700303316116,2588672.0,3041.262853384018,0.004375760909169912,0.04339599609375,2.0894105434417725,-0.020870298147201538,0.21278682351112366,-0.02089410461485386,2.380460500717163e-05,0.0,0.0878489762544632,0.6342777609825134,0.8954201925409874,7.929981708526611,1.8877238035202026,8.017830848693848,1.9613524675369263,4.658194065093994,2.763360023498535,,,,,,
8514436000.0,399.62,24.34000015258789,6529777152.0,3422.0742268092577,158.0,0.037764593958854675,2605056.0,3046.0505928993225,0.004047044552862644,0.03973388671875,2.062274217605591,-0.019700588658452034,0.17642085254192352,-0.02062274143099785,0.0009221509099006653,0.0,0.09463372081518173,0.5807753205299377,0.9221611321649551,8.167013168334961,2.0311951637268066,8.261646270751953,2.081655979156494,4.787739515304565,2.880173921585083,,,,,,
8514436000.0,404.19,25.06999969482422,6529777152.0,3539.704888559228,159.0,0.026073597371578217,2621440.0,3050.6792273521423,0.003854177426546812,0.03570556640625,2.0691158771514893,-0.018394244834780693,0.16199922561645508,-0.0206911601126194,0.002296915277838707,0.0,0.1267615109682083,0.5324361324310303,0.9349585781459885,8.149093627929688,2.0912859439849854,8.275856018066406,2.0877246856689453,4.628634452819824,2.771265745162964,,,,,,
,,,,,,,,,,,,,,,,,,,,,,,,,,0.034564148634672165,1.1595431566238403,0.9923862814903259,0.034564148634672165,1.1595431566238403,0.9923862814903259
,,,,,,,,,,,,,,,,,,,,,,,,,,0.021974122151732445,0.9364508390426636,0.901081383228302,0.021974122151732445,0.9364508390426636,0.901081383228302
,,,,,,,,,,,,,,,,,,,,,,,,,,0.018544303253293037,0.8787439465522766,0.8603302240371704,0.018544303253293037,0.8787439465522766,0.8603302240371704
,,,,,,,,,,,,,,,,,,,,,,,,,,0.01749594882130623,0.8762853741645813,0.8602610230445862,0.01749594882130623,0.8762853741645813,0.8602610230445862
,,,,,,,,,,,,,,,,,,,,,,,,,,0.017176315188407898,0.841949999332428,0.8424784541130066,0.017176315188407898,0.841949999332428,0.8424784541130066
,,,,,,,,,,,,,,,,,,,,,,,,,,0.01654892973601818,0.8457538485527039,0.8446456789970398,0.01654892973601818,0.8457538485527039,0.8446456789970398
8514436000.0,402.82,24.93000030517578,6327188480.0,28.16956848416363,160.0,0.0337369367480278,2637824.0,3632.299780368805,0.0030241268686950207,0.02960205078125,2.12239670753479,-0.020339222624897957,0.17128115892410278,-0.021223967894911766,0.0008847415447235107,0.0,0.13919949531555176,0.5808092951774597,0.9350053060142274,6.566960334777832,2.2418859004974365,6.706159591674805,2.278214454650879,581.6205530166626,2.946356773376465,,,,,,
8514436000.0,402.89,24.600000381469727,6529777152.0,3519.0472821809904,161.0,0.031115496531128883,2654208.0,3636.9555859565735,0.0033407299779355526,0.035888671875,2.1130294799804688,-0.01892058551311493,0.14393222332000732,-0.02113029733300209,0.0022097057662904263,0.0,0.20908412337303162,0.5309833884239197,0.9335491326662982,6.924837589263916,2.0367648601531982,7.1339216232299805,2.0598256587982178,4.655805587768555,2.790652275085449,,,,,,
8514436000.0,411.92,24.899999618530273,6529777152.0,3563.6725177823273,162.0,0.031276509165763855,2670592.0,3641.5530903339386,0.002949654823169112,0.02642822265625,2.104854106903076,-0.01881456933915615,0.16520386934280396,-0.021048538386821747,0.0022339746356010437,0.0,0.1823241114616394,0.5701995491981506,0.9333459180544389,7.020883560180664,2.1888811588287354,7.203207492828369,2.2085814476013184,4.597504377365112,2.7839138507843018,,,,,,
8514436000.0,411.32,25.15999984741211,6529777152.0,3559.1525473098463,163.0,0.03866792842745781,2686976.0,3646.1564333438873,0.003898843191564083,0.04278564453125,2.1091105937957764,-0.019995519891381264,0.18727615475654602,-0.02109110727906227,0.0010955817997455597,0.0,0.16007265448570251,0.6050984859466553,0.9193018070402155,7.892477989196777,2.121060371398926,8.052550315856934,2.130070447921753,4.6033430099487305,2.7734463214874268,,,,,,
8514436000.0,403.74,25.18000030517578,6529777152.0,3629.3390320164326,164.0,0.02433725632727146,2703360.0,3650.670753955841,0.004438953008502722,0.041015625,2.118712902069092,-0.01969641074538231,0.1272251158952713,-0.021187128499150276,0.001490715891122818,0.0,0.14321273565292358,0.4913802444934845,0.9444688376576649,7.56589937210083,2.035224676132202,7.709112167358398,2.085206985473633,4.514320611953735,2.751544713973999,,,,,,
8514436000.0,407.23,25.860000610351562,6529777152.0,3582.928920499405,165.0,0.035352811217308044,2719744.0,3655.2435491085052,0.004702819511294365,0.0426025390625,2.121734857559204,-0.019526569172739983,0.17936480045318604,-0.02121734991669655,0.001690782606601715,0.0,0.14383307099342346,0.6023666262626648,0.8898823348779861,7.983548164367676,1.8399566411972046,8.127381324768066,1.8152326345443726,4.572795152664185,2.753232002258301,,,,,,
8514436000.0,414.38,26.760000228881836,6529777152.0,3628.3262895466555,166.0,0.03954450413584709,2736128.0,3659.7591297626495,0.0029925364069640636,0.025390625,2.0860707759857178,-0.019084669649600983,0.13367769122123718,-0.020860709249973297,0.0017760396003723145,0.0,0.1417277455329895,0.5181527733802795,0.928097540839349,8.397164344787598,1.9203866720199585,8.538891792297363,1.9323515892028809,4.515580654144287,2.75669527053833,,,,,,
8514436000.0,402.4,26.18000030517578,6529777152.0,3529.5586731963313,167.0,0.03217342123389244,2752512.0,3664.401069879532,0.0034801005385816097,0.0284423828125,2.113922357559204,-0.02000020630657673,0.1596960723400116,-0.021139223128557205,0.0011390135623514652,0.0,0.13956156373023987,0.5595619082450867,0.9205032433639864,7.964868545532227,1.9320549964904785,8.104429244995117,1.9846004247665405,4.641940116882324,2.756056070327759,,,,,,
8514436000.0,394.76,25.969999313354492,6529777152.0,3568.459867892242,168.0,0.03203265741467476,2768896.0,3668.9924063682556,0.009365178644657135,0.0897216796875,2.095871686935425,-0.017894504591822624,0.1656741499900818,-0.02095871791243553,0.003064211457967758,0.0,0.06714843213558197,0.5791391134262085,0.9311225612005114,8.196218490600586,2.1433513164520264,8.26336669921875,2.206705093383789,4.591336488723755,2.7515547275543213,,,,,,
8514436000.0,390.22,24.31999969482422,6529777152.0,3562.0070868515895,169.0,0.027170628309249878,2785280.0,3673.59206032753,0.0063065723516047,0.05792236328125,2.1074533462524414,-0.016097642481327057,0.17165285348892212,-0.021074533462524414,0.004976892843842506,0.0,0.10093621909618378,0.5805262923240662,0.9231408885725237,8.380836486816406,2.048527240753174,8.481771469116211,2.0939865112304688,4.599653959274292,2.762361526489258,,,,,,
8514436000.0,398.44,24.579999923706055,6529777152.0,3540.65124345455,170.0,0.038006581366062164,2801664.0,3678.219457626343,0.007253705523908138,0.0643310546875,2.1204116344451904,-0.01880212500691414,0.14055222272872925,-0.021204115822911263,0.002401992678642273,0.0,0.08612823486328125,0.5265054702758789,0.9282606209559447,8.473358154296875,1.9380379915237427,8.559486389160156,1.9657306671142578,4.627397298812866,2.7472083568573,,,,,,
8514436000.0,404.35,24.799999237060547,6529777152.0,3586.6090871650244,171.0,0.029533259570598602,2818048.0,3682.7875607013702,0.002466859295964241,0.0220947265625,2.120339870452881,-0.020663965493440628,0.14101606607437134,-0.02120339870452881,0.0005394360050559044,0.0,0.09039203077554703,0.5305396318435669,0.9119710832431515,8.65632438659668,1.7749117612838745,8.74671745300293,1.788158893585205,4.568103075027466,2.7571959495544434,,,,,,
8514436000.0,404.82,25.520000457763672,6529777152.0,3566.5663381978684,172.0,0.0344419926404953,2834432.0,3687.3813347816467,0.0032621403224766254,0.0384521484375,2.129359722137451,-0.020087461918592453,0.12148655951023102,-0.02129359543323517,0.0012061336310580373,0.0,0.09341216087341309,0.48530125617980957,0.9125938474076225,8.764025688171387,1.5884851217269897,8.857437133789062,1.6414988040924072,4.593774080276489,2.745194911956787,,,,,,
8514436000.0,411.79,26.420000076293945,6529777152.0,3521.1089700319167,173.0,0.03555352985858917,2850816.0,3692.034414291382,0.00470780162140727,0.044677734375,2.095675468444824,-0.01982269622385502,0.1426902413368225,-0.020956754684448242,0.0011340542696416378,0.0,0.08256042003631592,0.5282813310623169,0.9122445585972424,8.992646217346191,1.7637100219726562,9.075206756591797,1.7833119630813599,4.653079509735107,2.7624571323394775,,,,,,
8514436000.0,394.06,25.84000015258789,6529777152.0,3638.24285805424,174.0,0.031101364642381668,2867200.0,3696.537687063217,0.008040735498070717,0.04638671875,2.071007013320923,-0.009064173325896263,0.1942899376153946,-0.020710069686174393,0.01164589636027813,0.0,0.03477335721254349,0.6281576752662659,0.8954046350354237,8.845087051391602,1.8666237592697144,8.879860877990723,1.9422858953475952,4.503272771835327,2.7624902725219727,,,,,,
8514436000.0,390.39,25.31999969482422,6529777152.0,3617.1530544279353,175.0,0.034010931849479675,2883584.0,3701.067216157913,0.003753522178158164,0.03131103515625,2.0565314292907715,-0.018553368747234344,0.18104001879692078,-0.02056531235575676,0.0020119459368288517,0.0,0.03761575371026993,0.6057602167129517,0.8933772028254213,8.584400177001953,1.7905725240707397,8.622016906738281,1.8551380634307861,4.529529094696045,2.7500696182250977,,,,,,
8514436000.0,393.46,25.290000915527344,6529777152.0,3523.2086593663435,176.0,0.03366132080554962,2899968.0,3705.717522621155,0.005760454572737217,0.0487060546875,2.0482466220855713,-0.017838792875409126,0.149649977684021,-0.020482463762164116,0.002643672749400139,0.0,0.13497748970985413,0.5515934228897095,0.8840205144035488,9.003728866577148,1.648783802986145,9.13870620727539,1.619680643081665,4.650306463241577,2.7579054832458496,,,,,,
8514436000.0,397.3,25.780000686645508,6529777152.0,3533.824555279552,177.0,0.03301727771759033,2916352.0,3710.3538591861725,0.004576839506626129,0.04791259765625,2.0655620098114014,-0.01931433565914631,0.11313886195421219,-0.020655620843172073,0.0013412851840257645,0.0,0.04686583951115608,0.4737667739391327,0.8988131230465752,9.101442337036133,1.4823418855667114,9.148307800292969,1.4893665313720703,4.6363365650177,2.7763333320617676,,,,,,
8514436000.0,409.42,26.8799991607666,6529777152.0,3544.387432967139,178.0,0.03564479947090149,2932736.0,3714.9763786792755,0.004434824455529451,0.04852294921875,2.0445284843444824,-0.019062696024775505,0.12600737810134888,-0.020445283502340317,0.0013825912028551102,0.0,0.06791860610246658,0.505158543586731,0.9199171131619105,9.239143371582031,1.7779711484909058,9.307062149047852,1.7850799560546875,4.622519493103027,2.763719081878662,,,,,,
8514436000.0,413.1,26.950000762939453,6529777152.0,3507.8118951154215,179.0,0.03279285132884979,2949120.0,3719.647096633911,0.006677149794995785,0.07958984375,2.0702016353607178,-0.01951543614268303,0.12744799256324768,-0.02070201374590397,0.0011865783017128706,0.0,0.06468649953603745,0.5060561299324036,0.8936110749314836,9.450090408325195,1.5710347890853882,9.514776229858398,1.5514981746673584,4.67071795463562,2.749373435974121,,,,,,
8514436000.0,412.3,27.510000228881836,6529777152.0,3498.026732213427,180.0,0.038567833602428436,2965504.0,3724.3308801651,0.005505668465048075,0.05169677734375,2.0419464111328125,-0.019048191606998444,0.140529602766037,-0.020419465377926826,0.0013712747022509575,0.0,0.07745067030191422,0.5146992802619934,0.8974968435529266,9.572441101074219,1.5601862668991089,9.649890899658203,1.6076223850250244,4.683783531188965,2.778125286102295,,,,,,
8514436000.0,410.1,27.799999237060547,6529777152.0,3505.5734929286045,181.0,0.030453823506832123,2981888.0,3729.0045804977417,0.006326116621494293,0.05438232421875,2.0216100215911865,-0.018266618251800537,0.1517452448606491,-0.02021609991788864,0.0019494779407978058,0.0,0.0285019651055336,0.5584508180618286,0.8697416936869836,9.637283325195312,1.4591325521469116,9.66578483581543,1.5473241806030273,4.673700332641602,2.7574143409729004,,,,,,
8514436000.0,406.98,27.18000030517578,6529777152.0,3462.30640818747,182.0,0.03397131338715553,2998272.0,3733.736686229706,0.004843828268349171,0.0418701171875,2.034553050994873,-0.01774081215262413,0.1143328994512558,-0.020345527678728104,0.0026047173887491226,0.0,0.058342620730400085,0.48228442668914795,0.934288176314293,9.123298645019531,1.8461453914642334,9.181640625,1.8813992738723755,4.732105731964111,2.8855807781219482,,,,,,
8514436000.0,407.3,26.520000457763672,6529777152.0,3468.064181477631,183.0,0.03387570381164551,3014656.0,3738.4609355926514,0.005593037698417902,0.054443359375,2.055874824523926,-0.016914673149585724,0.1787717342376709,-0.02055875025689602,0.003644079901278019,0.0,0.029087871313095093,0.600318193435669,0.8700049780508196,9.431575775146484,1.5666669607162476,9.460664749145508,1.6650190353393555,4.724249362945557,2.7587413787841797,,,,,,
