CpuMaxMemory,EpLenMean,EpRewMean,GpuMaxMemory,IPS_total,Iter,Misc/FrameRewMean,Misc/InteractCount,Misc/TimeElapsed,Opt/approxkl,Opt/clipfrac,Opt/entropy,Opt/loss_pi,Opt/loss_vf,Opt/negent,Opt/pg,Opt/pi_kl,VFStats/AdvMean,VFStats/AdvStd,VFStats/EV,VFStats/VpredMean,VFStats/VpredStd,VFStats/VtargMean,VFStats/VtargStd,del_time,wait_optimization,scaled/pol_distance,scaled/vf_aux,scaled/vf_true,unscaled/pol_distance,unscaled/vf_aux,unscaled/vf_true
2365620000.0,81.21,-1.7799999713897705,6317166080.0,3588.596111711884,0.0,-0.012653352692723274,16384.0,4.565573692321777,0.004170638974756002,0.0384521484375,2.70382022857666,-0.026413366198539734,0.17206476628780365,-0.027038201689720154,0.0006248364225029945,0.0,-0.17864294350147247,0.5810269713401794,9.964710574905666e-06,0.009310886263847351,0.015456137247383595,-0.16933205723762512,0.5810298919677734,4.565573692321777,2.7288057804107666,,,,,,
2564008000.0,83.83,-2.4700000286102295,6519754752.0,3594.3102104763957,1.0,-0.013183681294322014,32768.0,9.123889207839966,0.0007739769062027335,0.0,2.7054295539855957,-0.027514781802892685,0.1699608862400055,-0.02705429308116436,-0.00046048592776060104,0.0,-0.1624634563922882,0.5803396105766296,0.029781448904874996,-0.12818393111228943,0.06986348330974579,-0.29064735770225525,0.5891792178153992,4.5583155155181885,2.7290098667144775,,,,,,
2762008000.0,81.99,-2.140000104904175,6519754752.0,3641.9007440938963,2.0,-0.015252849087119102,49152.0,13.622638940811157,0.0032655370887368917,0.0318603515625,2.689890146255493,-0.026878414675593376,0.17947715520858765,-0.02689889818429947,2.047792077064514e-05,0.0,-0.12292402982711792,0.6080793142318726,0.04267577103887421,-0.3428554832935333,0.08417482674121857,-0.46577948331832886,0.6214851140975952,4.498749732971191,2.7323951721191406,,,,,,
2960272000.0,82.08,-2.9600000381469727,6519754752.0,3593.3759195546186,3.0,-0.014690138399600983,65536.0,18.18213963508606,0.0005695741856470704,0.0,2.7029330730438232,-0.02721031755208969,0.17832344770431519,-0.027029329910874367,-0.0001809871755540371,0.0,-0.08203409612178802,0.597549557685852,0.09162078699888743,-0.5876388549804688,0.1286178082227707,-0.669672966003418,0.6269607543945312,4.559500694274902,2.744250535964966,,,,,,
3158272000.0,85.2,-2.6500000953674316,6519754752.0,3601.244489731685,4.0,-0.011907903477549553,81920.0,22.731678009033203,0.00018209117115475237,0.0,2.705941677093506,-0.027293071150779724,0.1515694558620453,-0.027059420943260193,-0.00023365020751953125,0.0,-0.016149036586284637,0.5558415651321411,0.13592691802437307,-0.6384421586990356,0.1642765998840332,-0.6545912027359009,0.5979650616645813,4.5495383739471436,2.7449774742126465,,,,,,
3356008000.0,78.18,-1.7999999523162842,6519754752.0,3609.8790374535156,5.0,-0.01082880049943924,98304.0,27.270334243774414,9.63189741014503e-05,0.0,2.7072837352752686,-0.026824668049812317,0.15534386038780212,-0.027072839438915253,0.0002481713891029358,0.0,0.0011752722784876823,0.5495103597640991,0.1584157384839967,-0.6771608591079712,0.21025961637496948,-0.6759856343269348,0.5990004539489746,4.538656234741211,2.7435336112976074,,,,,,
3553744000.0,85.19,-2.7200000286102295,6519754752.0,3573.3219707207923,6.0,-0.014029732905328274,114688.0,31.85542345046997,0.0006019986467435956,0.0,2.705484628677368,-0.02696109563112259,0.17946979403495789,-0.027054844424128532,9.375344961881638e-05,0.0,-0.07105863094329834,0.5711519718170166,0.1382958778602894,-0.5823835134506226,0.18322621285915375,-0.6534420847892761,0.6152796149253845,4.585089206695557,2.7470450401306152,,,,,,
3752800000.0,92.05,-2.2100000381469727,6519754752.0,3567.9029348561485,7.0,-0.012677201069891453,131072.0,36.447476625442505,0.002537381835281849,0.01080322265625,2.6949305534362793,-0.027012929320335388,0.15455318987369537,-0.026949305087327957,-6.362330168485641e-05,0.0,-0.09097708761692047,0.5582106709480286,0.20912994209359548,-0.4193434715270996,0.1832049936056137,-0.5103205442428589,0.6276904940605164,4.592053174972534,2.7561211585998535,,,,,,
3949480000.0,85.23,-2.309999942779541,6519754752.0,3600.151736444673,8.0,-0.012075403705239296,147456.0,40.998395919799805,0.002272589597851038,0.01446533203125,2.6861329078674316,-0.026947885751724243,0.1520777940750122,-0.02686132676899433,-8.655991405248642e-05,0.0,-0.030814222991466522,0.5508727431297302,0.23650137040552632,-0.5299810171127319,0.2493559718132019,-0.560795247554779,0.6304448843002319,4.5509192943573,2.7524969577789307,,,,,,
4147480000.0,86.52,-2.75,6519754752.0,3535.5577712069226,9.0,-0.013758840039372444,163840.0,45.63245964050293,0.002094872295856476,0.0140380859375,2.6702041625976562,-0.026085175573825836,0.1481568068265915,-0.026702040806412697,0.0006168633699417114,0.0,-0.05994393676519394,0.5455583930015564,0.29451154025800885,-0.5814660787582397,0.2937416136264801,-0.6414099931716919,0.6495256423950195,4.634063720703125,2.7575316429138184,,,,,,
4345480000.0,81.37,-1.8300000429153442,6519754752.0,3592.518551170986,10.0,-0.011294001713395119,180224.0,50.19304847717285,0.00553084583953023,0.061767578125,2.6822898387908936,-0.02751944214105606,0.13783332705497742,-0.026822898536920547,-0.0006965398788452148,0.0,-0.016964897513389587,0.5113123059272766,0.286361084497991,-0.5561527609825134,0.30302244424819946,-0.5731176137924194,0.6052669286727905,4.560588836669922,2.7657546997070312,,,,,,
4543216000.0,84.71,-2.190000057220459,6519754752.0,3626.2933140605,11.0,-0.01191276591271162,196608.0,54.71116065979004,0.0008620501030236483,0.0,2.6806488037109375,-0.026504309847950935,0.14307864010334015,-0.026806486770510674,0.00030217692255973816,0.0,-0.031362779438495636,0.5087180137634277,0.30775804081074476,-0.5543829202651978,0.25396060943603516,-0.5857456922531128,0.6114320158958435,4.5181121826171875,2.7494449615478516,,,,,,
4740952000.0,81.64,-1.8700000047683716,6519754752.0,3628.4944978678736,12.0,-0.010798688977956772,212992.0,59.226531982421875,0.0012994761345908046,0.001220703125,2.6651320457458496,-0.0265948548913002,0.13920021057128906,-0.02665131911635399,5.646608769893646e-05,0.0,-0.006082302890717983,0.5286351442337036,0.3543080306854397,-0.5722477436065674,0.3097168505191803,-0.5783300399780273,0.6578748226165771,4.515371322631836,2.7527215480804443,,,,,,
4939744000.0,79.54,-2.2100000381469727,6519754752.0,3579.788249953637,13.0,-0.013515022583305836,229376.0,63.8033390045166,0.002506013959646225,0.03399658203125,2.662783622741699,-0.02653666026890278,0.1529175341129303,-0.026627834886312485,9.117461740970612e-05,0.0,0.028871683403849602,0.5533803701400757,0.3870917677859428,-0.7700144052505493,0.4178466200828552,-0.741142749786377,0.7068479657173157,4.576807022094727,2.765629768371582,,,,,,
5136688000.0,80.52,-1.6699999570846558,6519754752.0,3594.4453855119104,14.0,-0.010736992582678795,245760.0,68.36148309707642,0.003517058677971363,0.02716064453125,2.6435627937316895,-0.02674134634435177,0.13535544276237488,-0.026435628533363342,-0.00030571501702070236,0.0,0.0445898175239563,0.5194673538208008,0.44927876763510655,-0.7084497213363647,0.4437134563922882,-0.6638599634170532,0.6999907493591309,4.5581440925598145,2.7677645683288574,,,,,,
5334688000.0,80.31,-1.2200000286102295,6519754752.0,3566.438249365787,15.0,-0.010377200320363045,262144.0,72.95542216300964,0.004634907003492117,0.03399658203125,2.6239917278289795,-0.026493635028600693,0.12088244408369064,-0.026239916682243347,-0.00025372114032506943,0.0,0.028022998943924904,0.48529207706451416,0.49164469346644346,-0.5398522615432739,0.47008123993873596,-0.5118293166160583,0.6806432008743286,4.5939390659332275,2.7640466690063477,,,,,,
5532424000.0,80.11,-2.5899999141693115,6519754752.0,3596.525241131792,16.0,-0.01370957586914301,278528.0,77.51093029975891,0.0014232257381081581,0.00018310546875,2.660452365875244,-0.02648811787366867,0.1321939080953598,-0.02660452201962471,0.00011640484444797039,0.0,-0.059425294399261475,0.5077962875366211,0.4380867884120321,-0.46353739500045776,0.42049187421798706,-0.5229626297950745,0.677415132522583,4.555508136749268,2.7578964233398438,,,,,,
5730424000.0,82.88,-2.319999933242798,6519754752.0,3622.0850801163147,17.0,-0.012658685445785522,294912.0,82.03429174423218,0.001320746261626482,0.0133056640625,2.6640892028808594,-0.026561249047517776,0.13610540330410004,-0.026640890166163445,7.964484393596649e-05,0.0,-0.022571757435798645,0.5134351253509521,0.47099459031991653,-0.49975448846817017,0.42483317852020264,-0.5223262906074524,0.7059201002120972,4.523361444473267,2.7669878005981445,,,,,,
5928160000.0,80.51,-1.8700000047683716,6519754752.0,3587.5775077433427,18.0,-0.010935697704553604,311296.0,86.60116171836853,0.0018477708799764514,0.00762939453125,2.6178295612335205,-0.026645665988326073,0.1161109060049057,-0.02617829479277134,-0.00046737026423215866,0.0,-0.03367844969034195,0.47349783778190613,0.5368244847879223,-0.4725760221481323,0.46592119336128235,-0.5062544941902161,0.6957371234893799,4.5668699741363525,2.7943453788757324,,,,,,
6126952000.0,74.76,-1.7899999618530273,6519754752.0,3589.8980761040157,19.0,-0.009160678833723068,327680.0,91.16507959365845,0.003004808444529772,0.0068359375,2.5476958751678467,-0.025121815502643585,0.11204253137111664,-0.025476958602666855,0.00035513832699507475,0.0,0.022207356989383698,0.4638959467411041,0.5491645526418248,-0.4913429021835327,0.5033186674118042,-0.4691355228424072,0.6908942461013794,4.563917875289917,2.7785017490386963,,,,,,
6323896000.0,79.74,-1.2699999809265137,6519754752.0,3593.960381828773,20.0,-0.010313184931874275,344064.0,95.72383880615234,0.00244126096367836,0.0321044921875,2.5694375038146973,-0.023965973407030106,0.10903754830360413,-0.025694377720355988,0.0017284040804952383,0.0,0.04724390432238579,0.47806477546691895,0.592409814374377,-0.6255799531936646,0.5930901169776917,-0.5783360004425049,0.748815655708313,4.5587592124938965,2.7918553352355957,,,,,,
6521632000.0,76.33,-1.2999999523162842,6519754752.0,3536.8013225843674,21.0,-0.00933539867401123,360448.0,100.35627317428589,0.003191885072737932,0.020263671875,2.5471811294555664,-0.024241693317890167,0.11597790569067001,-0.02547181025147438,0.001230115070939064,0.0,0.06372669339179993,0.46852514147758484,0.5712415828916351,-0.6016291379928589,0.5880446434020996,-0.5379024744033813,0.7155279517173767,4.632434368133545,2.796107053756714,,,,,,
6719632000.0,72.84,-1.4199999570846558,6519754752.0,3539.4480065189796,22.0,-0.009256156161427498,376832.0,104.98524355888367,0.00198895251378417,0.002197265625,2.5528833866119385,-0.02420869842171669,0.09700050950050354,-0.025528833270072937,0.0013201367110013962,0.0,0.005987088195979595,0.43518733978271484,0.5521881527505759,-0.38775283098220825,0.4531742036342621,-0.3817657232284546,0.6503220200538635,4.628970384597778,2.781623125076294,,,,,,
6917368000.0,74.45,-2.5,6519754752.0,3509.026684277975,23.0,-0.01326747052371502,393216.0,109.65434455871582,0.003956052474677563,0.03985595703125,2.5021109580993652,-0.02555932104587555,0.10104770958423615,-0.025021107867360115,-0.0005382085219025612,0.0,-0.05252651870250702,0.4499787986278534,0.5730032434875876,-0.33929044008255005,0.47535625100135803,-0.39181697368621826,0.6886202692985535,4.669100999832153,2.800511598587036,,,,,,
7115368000.0,76.38,-1.6799999475479126,6519754752.0,3526.152543485227,24.0,-0.01029999554157257,409600.0,114.30076861381531,0.0016407096991315484,0.005859375,2.565358877182007,-0.02493864670395851,0.08657601475715637,-0.02565358579158783,0.0007149358280003071,0.0,0.017729690298438072,0.42050305008888245,0.641906449138332,-0.43409883975982666,0.5373440384864807,-0.41636914014816284,0.7027015089988708,4.646424055099487,2.7850301265716553,,,,,,
7314160000.0,72.73,-1.6200000047683716,6519754752.0,3478.855778612275,25.0,-0.008976634591817856,425984.0,119.01036310195923,0.004506208933889866,0.04327392578125,2.5060365200042725,-0.026992619037628174,0.07752954214811325,-0.025060364976525307,-0.0019322489388287067,0.0,-0.004936688579618931,0.38966089487075806,0.6388931430941726,-0.2817597985267639,0.5198167562484741,-0.28669649362564087,0.6484387516975403,4.709594488143921,2.8014097213745117,,,,,,
7511104000.0,75.46,-1.5800000429153442,6519754752.0,3474.8949185696774,26.0,-0.009178157895803452,442368.0,123.7253258228302,0.0021428754553198814,0.00909423828125,2.528348207473755,-0.02481505274772644,0.07584966719150543,-0.025283483788371086,0.0004684329032897949,0.0,0.018227221444249153,0.3880750834941864,0.6766495959421863,-0.3355075716972351,0.54871666431427,-0.3172803223133087,0.6824629902839661,4.714962720870972,2.816887140274048,,,,,,
7708840000.0,71.67,-1.659999966621399,6519754752.0,3563.7311022021763,27.0,-0.009544535540044308,458752.0,128.32275462150574,0.003121165791526437,0.02789306640625,2.4650936126708984,-0.02448754943907261,0.071987085044384,-0.0246509350836277,0.00016338564455509186,0.0,-3.342295531183481e-05,0.3710435628890991,0.6566083191627978,-0.2967786192893982,0.4872407913208008,-0.2968120276927948,0.6331841349601746,4.597428798675537,2.794588804244995,,,,,,
7906840000.0,75.42,-1.409999966621399,6519754752.0,3521.0752322495237,28.0,-0.009265759028494358,475136.0,132.97587871551514,0.002966680098325014,0.0223388671875,2.553330421447754,-0.024647889658808708,0.08204858750104904,-0.025533301755785942,0.0008854111656546593,0.0,-0.006976892706006765,0.3745546340942383,0.7552664735707773,-0.3271690607070923,0.630351185798645,-0.3341459631919861,0.75712651014328,4.653124094009399,2.7945556640625,,,,,,
8104576000.0,74.48,-1.6799999475479126,6519754752.0,3494.2244807170173,29.0,-0.010491742752492428,491520.0,137.66475892066956,0.0020786267705261707,0.02362060546875,2.5100700855255127,-0.02546457201242447,0.10321825742721558,-0.025100698694586754,-0.00036387331783771515,0.0,-0.07138080894947052,0.41272103786468506,0.5988039971650964,-0.15571138262748718,0.4140252470970154,-0.2270921766757965,0.6515958309173584,4.688880205154419,2.861861228942871,,,,,,
8302312000.0,74.36,-1.4600000381469727,6519754752.0,3590.623799140898,30.0,-0.010010330937802792,507904.0,142.22775435447693,0.0011254065902903676,0.00433349609375,2.495914936065674,-0.025258924812078476,0.0787084773182869,-0.024959150701761246,-0.00029977597296237946,0.0,-0.008597316220402718,0.3866087794303894,0.6530295701873899,-0.28944292664527893,0.5023455023765564,-0.2980402410030365,0.6563349366188049,4.562995433807373,2.7733123302459717,,,,,,
8501368000.0,72.2,-1.5299999713897705,6519754752.0,3441.4521123450363,31.0,-0.010377871803939342,524288.0,146.98853540420532,0.0047371056862175465,0.07080078125,2.4152133464813232,-0.023424753919243813,0.07333095371723175,-0.024152133613824844,0.0007273796945810318,0.0,-0.00023750518448650837,0.38654589653015137,0.7095051235611601,-0.3489098846912384,0.5766968727111816,-0.34914737939834595,0.7171860933303833,4.7607810497283936,2.859515905380249,,,,,,
,,,,,,,,,,,,,,,,,,,,,,,,,,0.0014386604307219386,0.16270357370376587,0.12997090816497803,0.0014386604307219386,0.16270357370376587,0.12997090816497803
,,,,,,,,,,,,,,,,,,,,,,,,,,0.0012226685648784041,0.11227575689554214,0.10403570532798767,0.0012226685648784041,0.11227575689554214,0.10403570532798767
,,,,,,,,,,,,,,,,,,,,,,,,,,0.0009918272262439132,0.09833647310733795,0.09555716812610626,0.0009918272262439132,0.09833647310733795,0.09555716812610626
,,,,,,,,,,,,,,,,,,,,,,,,,,0.0008230679086409509,0.09380502998828888,0.0917930081486702,0.0008230679086409509,0.09380502998828888,0.0917930081486702
,,,,,,,,,,,,,,,,,,,,,,,,,,0.0011248794617131352,0.0913475900888443,0.08945345878601074,0.0011248794617131352,0.0913475900888443,0.08945345878601074
,,,,,,,,,,,,,,,,,,,,,,,,,,0.0009548532543703914,0.08872910588979721,0.08804840594530106,0.0009548532543703914,0.08872910588979721,0.08804840594530106
8513456000.0,72.58,-1.309999942779541,6327188480.0,28.136579141246223,32.0,-0.007559453137218952,540672.0,729.2910220623016,0.002901977626606822,0.02532958984375,2.476602792739868,-0.025271683931350708,0.04838774353265762,-0.024766026064753532,-0.000505656935274601,0.0,0.060134924948215485,0.3186543881893158,0.7467531855549336,-0.41966909170150757,0.5094654560089111,-0.3595341444015503,0.6332101821899414,582.3024866580963,2.809398651123047,,,,,,
8513456000.0,72.75,-1.059999942779541,6529777152.0,3576.498020524425,33.0,-0.007038279436528683,557056.0,733.8720395565033,0.002411758294329047,0.02545166015625,2.5048630237579346,-0.025487717241048813,0.04672396183013916,-0.025048628449440002,-0.00043908925727009773,0.0,0.0305493026971817,0.32066279649734497,0.763797720066738,-0.2821353077888489,0.5402902364730835,-0.25158601999282837,0.6597912907600403,4.58101749420166,2.7871241569519043,,,,,,
8513456000.0,77.4,-1.2100000381469727,6529777152.0,3562.2884900245053,34.0,-0.006603313609957695,573440.0,738.471330165863,0.0014503573765978217,0.012451171875,2.471813917160034,-0.02664145641028881,0.0445588082075119,-0.024718139320611954,-0.0019233152270317078,0.0,0.01606382243335247,0.31688493490219116,0.7849091978455749,-0.23505112528800964,0.5981981754302979,-0.21898728609085083,0.68326735496521,4.599290609359741,2.816038131713867,,,,,,
8513456000.0,73.77,-1.3899999856948853,6529777152.0,3606.932519142948,35.0,-0.008068688213825226,589824.0,743.0136940479279,0.0019691786728799343,0.01806640625,2.489428997039795,-0.02537405863404274,0.04054213687777519,-0.024894291535019875,-0.00047977082431316376,0.0,0.02558518946170807,0.2964911460876465,0.8369620330764398,-0.2741128206253052,0.6853506565093994,-0.2485276311635971,0.7342895269393921,4.542363882064819,2.780205011367798,,,,,,
8513456000.0,71.38,-0.5400000214576721,6529777152.0,3599.437051301116,36.0,-0.0039419736713171005,606208.0,747.5655169487,0.0032073373440653086,0.03839111328125,2.507115602493286,-0.025022804737091064,0.03845633938908577,-0.025071153417229652,4.8351939767599106e-05,0.0,0.027794696390628815,0.28372085094451904,0.7866529554801414,-0.16830463707447052,0.5889317393302917,-0.1405099332332611,0.6142538785934448,4.551822900772095,2.780301332473755,,,,,,
8513456000.0,76.08,-0.3799999952316284,6529777152.0,3579.8818659161498,37.0,-0.002149347448721528,622592.0,752.142204284668,0.004704162012785673,0.05560302734375,2.512937545776367,-0.024836931377649307,0.034671179950237274,-0.025129375979304314,0.0002924427390098572,0.0,0.022040970623493195,0.27544552087783813,0.7335150067672843,-0.09994658827781677,0.5129190683364868,-0.07790561020374298,0.5335797667503357,4.576687335968018,2.769113302230835,,,,,,
8513456000.0,80.19,-0.5299999713897705,6529777152.0,3592.636123938525,38.0,-0.003000002121552825,638976.0,756.7026438713074,0.005025339312851429,0.06402587890625,2.5606577396392822,-0.026683587580919266,0.041658882051706314,-0.02560657635331154,-0.0010770130902528763,0.0,0.009680182673037052,0.28737953305244446,0.7440757485230045,-0.12849774956703186,0.4724172055721283,-0.11881757527589798,0.568067729473114,4.560439586639404,2.7690351009368896,,,,,,
8513456000.0,80.91,0.20000000298023224,6529777152.0,3521.0245365836313,39.0,0.0010868280660361052,655360.0,761.3558349609375,0.0028614664915949106,0.030517578125,2.530073642730713,-0.024817809462547302,0.02555958554148674,-0.025300735607743263,0.00048292288556694984,0.0,0.056739408522844315,0.2276458889245987,0.7416655088385544,-0.055366143584251404,0.40492475032806396,0.0013732617953792214,0.4478871822357178,4.653191089630127,2.7732012271881104,,,,,,
8513456000.0,75.25,0.10000000149011612,6529777152.0,3587.3699985315266,40.0,0.00036450265906751156,671744.0,765.9229691028595,0.005359255243092775,0.07086181640625,2.563941478729248,-0.02548138238489628,0.03145520016551018,-0.02563941664993763,0.00015803519636392593,0.0,0.0055044954642653465,0.25655919313430786,0.7724907792025656,0.0021549942903220654,0.4764508008956909,0.007659489288926125,0.5378833413124084,4.567134141921997,2.7673938274383545,,,,,,
8513456000.0,79.5,0.11999999731779099,6529777152.0,3626.092016901348,41.0,0.0004888531402684748,688128.0,770.4413321018219,0.003801427548751235,0.03961181640625,2.530888557434082,-0.025370221585035324,0.03297729045152664,-0.025308882817626,-6.133969873189926e-05,0.0,0.02512838877737522,0.25692522525787354,0.7826430557484824,-0.022067250683903694,0.4905663728713989,0.0030611404217779636,0.5510866641998291,4.518362998962402,2.7704291343688965,,,,,,
8513456000.0,76.58,0.3199999928474426,6529777152.0,3591.5559084654274,42.0,0.00242783036082983,704512.0,775.0031433105469,0.004754839930683374,0.046875,2.5772085189819336,-0.024494782090187073,0.02654595673084259,-0.025772085413336754,0.0012773070484399796,0.0,0.02310575172305107,0.2329990565776825,0.7764265775599593,0.03853515535593033,0.4425070285797119,0.0616409033536911,0.4927697479724884,4.561811208724976,2.7648415565490723,,,,,,
8513456000.0,80.44,0.75,6529777152.0,3558.5913285603724,43.0,0.004420669749379158,720896.0,779.607212305069,0.0059259324334561825,0.07208251953125,2.552309989929199,-0.026122327893972397,0.030453922227025032,-0.025523098185658455,-0.0005992315709590912,0.0,0.05917401984333992,0.25480926036834717,0.6444480550607741,0.07550694048404694,0.39734309911727905,0.13468095660209656,0.42733028531074524,4.604068994522095,2.7729578018188477,,,,,,
8513456000.0,88.6,0.8600000143051147,6529777152.0,3578.811542005084,44.0,0.004658922087401152,737280.0,784.1852684020996,0.006470178719609976,0.07244873046875,2.5824778079986572,-0.02286395989358425,0.02660621702671051,-0.02582477778196335,0.002960817888379097,0.0,0.0422847718000412,0.23261871933937073,0.675976767591759,0.11438161879777908,0.3350183367729187,0.15666639804840088,0.4086548089981079,4.57805609703064,2.766981601715088,,,,,,
8513456000.0,79.74,0.75,6529777152.0,3574.513583177021,45.0,0.004743211902678013,753664.0,788.7688291072845,0.007820731028914452,0.0865478515625,2.542924404144287,-0.025903260335326195,0.031217603012919426,-0.025429243221879005,-0.00047402456402778625,0.0,0.028578544035553932,0.24810269474983215,0.6785897543888177,0.16171957552433014,0.35582396388053894,0.19029811024665833,0.4376244843006134,4.5835607051849365,2.7613918781280518,,,,,,
8513456000.0,81.42,0.8899999856948853,6529777152.0,3600.508996808925,46.0,0.0040772343054413795,770048.0,793.319296836853,0.00561970379203558,0.0662841796875,2.5490915775299072,-0.023748915642499924,0.03020033799111843,-0.025490915402770042,0.0017419969663023949,0.0,0.021207865327596664,0.23874467611312866,0.7011511789334012,0.15129229426383972,0.3502654731273651,0.17250017821788788,0.43672487139701843,4.5504677295684814,2.7816712856292725,,,,,,
8513456000.0,81.57,0.9900000095367432,6529777152.0,3585.251333197233,47.0,0.0054850331507623196,786432.0,797.8891298770905,0.0073977322317659855,0.08758544921875,2.5349395275115967,-0.024633508175611496,0.022571245208382607,-0.025349393486976624,0.0007158857770264149,0.0,0.03579513356089592,0.20786114037036896,0.6887851015982189,0.17004962265491486,0.3058012127876282,0.20584475994110107,0.372600257396698,4.569833040237427,2.787585973739624,,,,,,
8513456000.0,79.7,0.9399999976158142,6529777152.0,3582.603156166037,48.0,0.006398056633770466,802816.0,802.4623408317566,0.0035693305544555187,0.039306640625,2.5382771492004395,-0.024719178676605225,0.023626046255230904,-0.025382772088050842,0.000663593877106905,0.0,0.05972651392221451,0.21596874296665192,0.6581985588959162,0.14794595539569855,0.30316776037216187,0.20767247676849365,0.36940598487854004,4.573210954666138,2.7713189125061035,,,,,,
8513456000.0,86.17,1.0099999904632568,6529777152.0,3587.1083988356218,49.0,0.006998482625931501,819200.0,807.0298080444336,0.004446499515324831,0.05328369140625,2.539116144180298,-0.02601376548409462,0.024387024343013763,-0.02539115957915783,-0.0006226035766303539,0.0,0.04611673206090927,0.22233344614505768,0.6423611619318268,0.191471666097641,0.27410680055618286,0.23758839070796967,0.3717769682407379,4.567467212677002,2.766747236251831,,,,,,
8513456000.0,81.33,1.2100000381469727,6529777152.0,3654.175237329109,50.0,0.008369050920009613,835584.0,811.5134463310242,0.006447905208915472,0.0672607421875,2.5253031253814697,-0.024840887635946274,0.024603912606835365,-0.02525302954018116,0.00041214580414816737,0.0,0.050987131893634796,0.2094804346561432,0.6941311657211303,0.25855302810668945,0.2983282208442688,0.30954015254974365,0.37877020239830017,4.483638286590576,2.7799112796783447,,,,,,
8513456000.0,81.22,1.059999942779541,6529777152.0,3547.53018035756,51.0,0.007601107470691204,851968.0,816.1318707466125,0.006701664067804813,0.0755615234375,2.514341115951538,-0.024925589561462402,0.022586530074477196,-0.02514340914785862,0.00021781958639621735,0.0,0.04921945184469223,0.21090076863765717,0.6888910555820815,0.2143709659576416,0.2681986689567566,0.26359039545059204,0.3781132698059082,4.618424415588379,2.77882981300354,,,,,,
8513456000.0,79.69,1.3200000524520874,6529777152.0,3603.3558413349383,52.0,0.010006854310631752,868352.0,820.6787433624268,0.005421096459031105,0.06353759765625,2.5192601680755615,-0.024352744221687317,0.028714552521705627,-0.02519259974360466,0.0008398597128689289,0.0,0.06823387742042542,0.23984910547733307,0.7312479146222437,0.26158854365348816,0.33912214636802673,0.3298224210739136,0.4626602232456207,4.546872615814209,2.7955939769744873,,,,,,
8513456000.0,85.74,1.7400000095367432,6529777152.0,3618.7151523423804,53.0,0.010322587564587593,884736.0,825.2063171863556,0.008814392611384392,0.10198974609375,2.4790127277374268,-0.02434471994638443,0.02599260024726391,-0.02479012869298458,0.00044540874660015106,0.0,0.07612326741218567,0.22135719656944275,0.7385095335918497,0.25829464197158813,0.32756495475769043,0.3344179093837738,0.4328782260417938,4.527573823928833,2.7839643955230713,,,,,,
8513456000.0,81.6,1.659999966621399,6529777152.0,3511.434745042705,54.0,0.010857269167900085,901120.0,829.8722162246704,0.005269919987767935,0.058349609375,2.5132272243499756,-0.022420767694711685,0.03104180470108986,-0.025132272392511368,0.002711508423089981,0.0,0.07902126014232635,0.2509811818599701,0.7054993570187557,0.26901954412460327,0.34393590688705444,0.3480408191680908,0.4624854326248169,4.665899038314819,2.8955769538879395,,,,,,
8513456000.0,86.6,1.8200000524520874,6529777152.0,3573.676155909986,55.0,0.011852957308292389,917504.0,834.4568510055542,0.006313409190624952,0.07281494140625,2.4716789722442627,-0.023308496922254562,0.03337089717388153,-0.02471678890287876,0.0014082929119467735,0.0,0.07238645106554031,0.23891279101371765,0.7616598895678915,0.3339059352874756,0.38587602972984314,0.4062923789024353,0.48937392234802246,4.584634780883789,2.7822368144989014,,,,,,
8513456000.0,95.08,2.0299999713897705,6529777152.0,3612.5646679232937,56.0,0.011571031995117664,933888.0,838.992133140564,0.007852355018258095,0.09576416015625,2.4994139671325684,-0.023428156971931458,0.03448214381933212,-0.02499414049088955,0.0015659835189580917,0.0,0.09335396438837051,0.26320594549179077,0.7232774334027889,0.2975361943244934,0.35317301750183105,0.3908901810646057,0.5003494024276733,4.535282135009766,2.7721307277679443,,,,,,
8513456000.0,88.69,2.2799999713897705,6529777152.0,3630.5472053977646,57.0,0.013657500967383385,950272.0,843.5049514770508,0.005936573259532452,0.07305908203125,2.4860007762908936,-0.022238243371248245,0.03405696898698807,-0.02486000768840313,0.0026217633858323097,0.0,0.11101002991199493,0.2525184452533722,0.715724198380618,0.30878087878227234,0.365314781665802,0.4197908937931061,0.47361257672309875,4.512818336486816,2.7749969959259033,,,,,,
8513456000.0,101.76,2.309999942779541,6529777152.0,3589.794559278057,58.0,0.012439382262527943,966656.0,848.0690009593964,0.017523881047964096,0.20098876953125,2.4769105911254883,-0.01568342000246048,0.027069639414548874,-0.02476910501718521,0.009085683152079582,0.0,0.11750326305627823,0.21913985908031464,0.7427202850751429,0.3280945122241974,0.33739784359931946,0.4455977976322174,0.4320346415042877,4.564049482345581,2.7774085998535156,,,,,,
8513456000.0,97.36,2.319999933242798,6529777152.0,3570.2680410571484,59.0,0.011703837662935257,983040.0,852.6580121517181,0.0074583180248737335,0.092041015625,2.4862024784088135,-0.021670732647180557,0.03416593745350838,-0.024862024933099747,0.0031912943813949823,0.0,0.08998696506023407,0.2555204927921295,0.6871820520753671,0.40419134497642517,0.33318254351615906,0.49417829513549805,0.4568565785884857,4.589011192321777,2.775930404663086,,,,,,
8513456000.0,103.24,2.5799999237060547,6529777152.0,3534.793041281008,60.0,0.01345524750649929,999424.0,857.2930784225464,0.006559163797646761,0.06988525390625,2.4950032234191895,-0.02451297640800476,0.07183951139450073,-0.02495003119111061,0.0004370538517832756,0.0,0.09197677671909332,0.38017645478248596,0.5704533587160026,0.47036123275756836,0.4128977954387665,0.5623379945755005,0.5800694823265076,4.635066270828247,2.8100836277008057,,,,,,
8513456000.0,99.91,2.1700000762939453,6529777152.0,3581.360789668967,61.0,0.011951345950365067,1015808.0,861.8678758144379,0.01018477976322174,0.135498046875,2.4661030769348145,-0.021677685901522636,0.029886890202760696,-0.024661028757691383,0.0029833419248461723,0.0,0.0772324725985527,0.24002039432525635,0.7602653021191141,0.40557706356048584,0.3667271137237549,0.48280951380729675,0.4902105927467346,4.5747973918914795,2.774479866027832,,,,,,
8513456000.0,101.74,2.430000066757202,6529777152.0,3585.108058076897,62.0,0.011727504432201385,1032192.0,866.4378914833069,0.004740565083920956,0.05902099609375,2.4842915534973145,-0.023526974022388458,0.042007848620414734,-0.024842912331223488,0.001315937377512455,0.0,0.0860259085893631,0.27882349491119385,0.7192122870238709,0.4558148682117462,0.4048052132129669,0.5418407917022705,0.5261873006820679,4.5700156688690186,2.7805466651916504,,,,,,
8513588000.0,117.16,2.619999885559082,6529777152.0,3597.022987308463,63.0,0.011642287485301495,1048576.0,870.992769241333,0.006564298644661903,0.0770263671875,2.4644505977630615,-0.02180248498916626,0.038194410502910614,-0.024644503369927406,0.0028420211747288704,0.0,0.057477954775094986,0.2640952169895172,0.7273600415277438,0.4954931139945984,0.3959433436393738,0.5529710650444031,0.505784809589386,4.554877758026123,2.787919521331787,,,,,,
,,,,,,,,,,,,,,,,,,,,,,,,,,0.01951034553349018,0.08835279941558838,0.0750536173582077,0.01951034553349018,0.08835279941558838,0.0750536173582077
,,,,,,,,,,,,,,,,,,,,,,,,,,0.007305745501071215,0.06672965735197067,0.06332948803901672,0.007305745501071215,0.06672965735197067,0.06332948803901672
,,,,,,,,,,,,,,,,,,,,,,,,,,0.006037316285073757,0.0601063035428524,0.059344399720430374,0.006037316285073757,0.0601063035428524,0.059344399720430374
,,,,,,,,,,,,,,,,,,,,,,,,,,0.005692100618034601,0.056686047464609146,0.056772734969854355,0.005692100618034601,0.056686047464609146,0.056772734969854355
,,,,,,,,,,,,,,,,,,,,,,,,,,0.0053228288888931274,0.05495423823595047,0.05502701923251152,0.0053228288888931274,0.05495423823595047,0.05502701923251152
,,,,,,,,,,,,,,,,,,,,,,,,,,0.005135946441441774,0.05300549045205116,0.05260663852095604,0.005135946441441774,0.05300549045205116,0.05260663852095604
8514116000.0,122.97,3.2200000286102295,6327188480.0,28.17498850268651,64.0,0.013915256597101688,1064960.0,1452.501435995102,0.008367414586246014,0.1033935546875,2.449554920196533,-0.02209983766078949,0.06805440038442612,-0.024495547637343407,0.0023957137018442154,0.0,0.16386206448078156,0.3607415556907654,0.6392018628878304,0.3086709976196289,0.369205504655838,0.4725330173969269,0.6005704998970032,581.5086667537689,2.931443452835083,,,,,,
8514116000.0,125.47,3.119999885559082,6529777152.0,3514.644586838415,65.0,0.014318278059363365,1081344.0,1457.1630737781525,0.006246035918593407,0.07757568359375,2.4228692054748535,-0.02461817115545273,0.04703313112258911,-0.024228692054748535,-0.0003894791007041931,0.0,0.10994118452072144,0.3000565469264984,0.7185568162117727,0.5945307016372681,0.4868960678577423,0.7044718265533447,0.5655977725982666,4.661637783050537,2.7579894065856934,,,,,,
8514116000.0,120.37,3.3299999237060547,6529777152.0,3551.4152531655873,66.0,0.014108147472143173,1097728.0,1461.776445865631,0.004922512918710709,0.0526123046875,2.4019618034362793,-0.023417338728904724,0.06519263982772827,-0.024019615724682808,0.0006022779271006584,0.0,0.09988873451948166,0.3428526818752289,0.7444753054054276,0.6834701299667358,0.561875581741333,0.7833589315414429,0.678252100944519,4.613372087478638,2.7593400478363037,,,,,,
8514116000.0,122.89,3.049999952316284,6529777152.0,3517.534558862898,67.0,0.013661079108715057,1114112.0,1466.434253692627,0.005323309917002916,0.05755615234375,2.4295783042907715,-0.02455044910311699,0.06594040244817734,-0.024295782670378685,-0.00025466643273830414,0.0,0.04519570991396904,0.3749192953109741,0.6636859660847637,0.9393186569213867,0.5852375626564026,0.9845144152641296,0.6464952230453491,4.65780782699585,2.769749402999878,,,,,,
8514116000.0,142.12,4.110000133514404,6529777152.0,3576.276715581158,68.0,0.01545418705791235,1130496.0,1471.0155546665192,0.003784705186262727,0.04010009765625,2.4122748374938965,-0.024364346638321877,0.10295483469963074,-0.024122746661305428,-0.00024159997701644897,0.0,0.08497031033039093,0.4296150803565979,0.7355830958706556,0.995976448059082,0.6991283297538757,1.080946683883667,0.8354777097702026,4.581300973892212,2.774445056915283,,,,,,
8514116000.0,126.44,3.9700000286102295,6529777152.0,3572.3593729401073,69.0,0.01711224392056465,1146880.0,1475.6018793582916,0.005091960541903973,0.052490234375,2.4326164722442627,-0.02452213689684868,0.1263635903596878,-0.024326162412762642,-0.00019597075879573822,0.0,0.0660586729645729,0.5132966041564941,0.7563832167658611,1.1323683261871338,0.8434426188468933,1.1984270811080933,1.0399556159973145,4.586324691772461,2.7672765254974365,,,,,,
8514116000.0,146.24,4.570000171661377,6529777152.0,3506.875673829705,70.0,0.016446754336357117,1163264.0,1480.273844242096,0.009045843966305256,0.1065673828125,2.4186336994171143,-0.022059600800275803,0.13456693291664124,-0.024186337366700172,0.002126733772456646,0.0,0.06975623965263367,0.49306273460388184,0.7500731120837079,1.2521276473999023,0.8317071199417114,1.3218839168548584,0.9862697720527649,4.671964883804321,2.7716917991638184,,,,,,
8514116000.0,153.52,5.010000228881836,6529777152.0,3490.984242851213,71.0,0.015642991289496422,1179648.0,1484.9670765399933,0.0037939075846225023,0.0399169921875,2.4233386516571045,-0.022831661626696587,0.15359605848789215,-0.024233385920524597,0.0014017252251505852,0.0,0.09797214716672897,0.5574876666069031,0.8149971385081016,1.1775853633880615,1.1080862283706665,1.275557518005371,1.2961223125457764,4.693232297897339,2.7672033309936523,,,,,,
8514116000.0,147.21,4.699999809265137,6529777152.0,3522.260952831123,72.0,0.017181210219860077,1196032.0,1489.618634223938,0.004350004717707634,0.0479736328125,2.403439998626709,-0.02397439070045948,0.14367401599884033,-0.024034397676587105,6.000790745019913e-05,0.0,0.11298862844705582,0.5237134099006653,0.7923781623862831,1.1427170038223267,0.9775950908660889,1.2557055950164795,1.1493626832962036,4.651557683944702,2.7706339359283447,,,,,,
8514116000.0,161.22,5.0,6529777152.0,3605.348607704183,73.0,0.015712128952145576,1212416.0,1494.16299366951,0.0043261367827653885,0.047607421875,2.4040071964263916,-0.022516213357448578,0.22567471861839294,-0.024040069431066513,0.0015238551422953606,0.0,0.10985682159662247,0.653727650642395,0.6996837295175122,1.356963872909546,1.0990046262741089,1.4668207168579102,1.1929092407226562,4.544359445571899,2.7711682319641113,,,,,,
8514116000.0,187.57,6.429999828338623,6529777152.0,3593.2690079599984,74.0,0.01870698109269142,1228800.0,1498.7226300239563,0.006645480170845985,0.075439453125,2.364760398864746,-0.02192634344100952,0.2247191071510315,-0.023647604510188103,0.0017212601378560066,0.0,0.154441237449646,0.5919730067253113,0.7858787271521044,1.4021934270858765,1.0471943616867065,1.5566346645355225,1.2792989015579224,4.559636354446411,2.763260841369629,,,,,,
8514116000.0,181.37,5.71999979019165,6529777152.0,3605.6367117056375,75.0,0.016562361270189285,1245184.0,1503.2666263580322,0.00799295213073492,0.09173583984375,2.408907175064087,-0.019171657040715218,0.2119775414466858,-0.02408907189965248,0.004917412996292114,0.0,0.1123734787106514,0.6162856221199036,0.7766556755176028,1.374996304512024,1.1314295530319214,1.4873697757720947,1.3040510416030884,4.543996334075928,2.7684428691864014,,,,,,
8514116000.0,174.38,5.630000114440918,6529777152.0,3559.689971849123,76.0,0.016266997903585434,1261568.0,1507.8692743778229,0.005211014300584793,0.0555419921875,2.385509729385376,-0.021455086767673492,0.19179928302764893,-0.023855099454522133,0.0024000138510018587,0.0,0.08512014150619507,0.6107779741287231,0.7827913127565234,1.7677724361419678,1.1305662393569946,1.8528923988342285,1.3105231523513794,4.602648019790649,2.768641948699951,,,,,,
8514116000.0,193.47,7.0,6529777152.0,3542.67294626381,77.0,0.01876915991306305,1277952.0,1512.4940309524536,0.0045705391094088554,0.0513916015625,2.368645191192627,-0.021789608523249626,0.1778671145439148,-0.023686449974775314,0.001896839588880539,0.0,0.12884242832660675,0.6152665615081787,0.8119617657685378,1.7382595539093018,1.1731255054473877,1.8671019077301025,1.4188623428344727,4.624756574630737,2.7679226398468018,,,,,,
8514116000.0,218.46,8.260000228881836,6529777152.0,3562.3392728915737,78.0,0.021057505160570145,1294336.0,1517.093255996704,0.00757850706577301,0.092041015625,2.3923721313476562,-0.02218024805188179,0.30563730001449585,-0.0239237230271101,0.0017434768378734589,0.0,0.17107926309108734,0.7731496691703796,0.8017932102581212,2.0861337184906006,1.5437875986099243,2.2572128772735596,1.736618161201477,4.599225044250488,2.7719457149505615,,,,,,
8514116000.0,206.71,8.460000038146973,6529777152.0,3559.6224852787614,79.0,0.0205827746540308,1310720.0,1521.6959912776947,0.004665589891374111,0.054931640625,2.373591661453247,-0.02122488059103489,0.1975555270910263,-0.02373591624200344,0.0025110309943556786,0.0,0.11656254529953003,0.6038248538970947,0.8122144863900052,1.9683808088302612,1.2196787595748901,2.0849432945251465,1.3934131860733032,4.602735280990601,2.768583297729492,,,,,,
8514116000.0,223.9,8.229999542236328,6529777152.0,3434.308883853108,80.0,0.01886487379670143,1327104.0,1526.466674566269,0.005078168120235205,0.0579833984375,2.3769211769104004,-0.02185976132750511,0.30112385749816895,-0.023769211024045944,0.0019094496965408325,0.0,0.11992217600345612,0.7415474653244019,0.7968215593093283,2.183623790740967,1.4865517616271973,2.3035459518432617,1.645129919052124,4.770683288574219,2.7751080989837646,,,,,,
8514116000.0,231.9,9.100000381469727,6529777152.0,3520.527219154232,81.0,0.0203726664185524,1343488.0,1531.1205229759216,0.006715878378599882,0.0819091796875,2.345189332962036,-0.021561551839113235,0.2659268081188202,-0.02345189079642296,0.0018903398886322975,0.0,0.15515188872814178,0.6785731911659241,0.8309976425640999,2.054666042327881,1.4903411865234375,2.209817886352539,1.6506320238113403,4.65384840965271,2.7711021900177,,,,,,
8514116000.0,215.44,8.65999984741211,6529777152.0,3503.608904536739,82.0,0.02163264900445938,1359872.0,1535.7968440055847,0.005133122205734253,0.06475830078125,2.3921985626220703,-0.02155580185353756,0.34400078654289246,-0.02392198145389557,0.0023661814630031586,0.0,0.14662618935108185,0.7858232259750366,0.8145840472949619,2.2482380867004395,1.685003638267517,2.394864320755005,1.824951410293579,4.676321029663086,2.773465871810913,,,,,,
8514116000.0,220.86,8.550000190734863,6529777152.0,3560.0516033201984,83.0,0.01981303095817566,1376256.0,1540.3990244865417,0.007806025445461273,0.09088134765625,2.3399291038513184,-0.021204663440585136,0.37872838973999023,-0.023399289697408676,0.0021946290507912636,0.0,0.1679958552122116,0.833816409111023,0.8036242284349545,2.779407024383545,1.7332148551940918,2.9474027156829834,1.8815962076187134,4.602180480957031,2.832707643508911,,,,,,
8514116000.0,245.89,10.850000381469727,6529777152.0,3486.9378746951825,84.0,0.024066902697086334,1392640.0,1545.0977029800415,0.0045248037204146385,0.05059814453125,2.3651530742645264,-0.0207066647708416,0.37802863121032715,-0.02365153096616268,0.0029448680579662323,0.0,0.11461152136325836,0.8438803553581238,0.8138989240021886,2.93613600730896,1.8284286260604858,3.0507473945617676,1.9561691284179688,4.698678493499756,2.7773139476776123,,,,,,
8514116000.0,253.39,11.199999809265137,6529777152.0,3460.4020258411215,85.0,0.02276799827814102,1409024.0,1549.8324129581451,0.006582260597497225,0.07958984375,2.3572959899902344,-0.019757602363824844,0.3304451107978821,-0.023572959005832672,0.003815358504652977,0.0,0.19402994215488434,0.8090572357177734,0.7849301616868356,2.8976011276245117,1.562758445739746,3.0916311740875244,1.7445744276046753,4.734709978103638,2.77321457862854,,,,,,
8514116000.0,253.82,12.420000076293945,6529777152.0,3470.4073924684417,86.0,0.024534841999411583,1425408.0,1554.553472518921,0.013090239837765694,0.157958984375,2.370624542236328,-0.01651116833090782,0.2589849531650543,-0.02370624430477619,0.00719507597386837,0.0,0.1752309799194336,0.740496039390564,0.82790649567661,2.982203722000122,1.5371668338775635,3.1574347019195557,1.785009503364563,4.721059560775757,2.774360179901123,,,,,,
8514116000.0,254.97,11.350000381469727,6529777152.0,3526.7866533921897,87.0,0.022954266518354416,1441792.0,1559.1990611553192,0.005072258412837982,0.063232421875,2.4222264289855957,-0.024641284719109535,0.3583361804485321,-0.02422226406633854,-0.0004190176259726286,0.0,0.09272943437099457,0.7967775464057922,0.8314993839360475,3.2592082023620605,1.7411277294158936,3.3519375324249268,1.941048264503479,4.645588636398315,2.7773597240448,,,,,,
8514116000.0,239.38,10.010000228881836,6529777152.0,3576.365494846393,88.0,0.019888725131750107,1458176.0,1563.7802484035492,0.007828610017895699,0.0977783203125,2.4151852130889893,-0.022506823763251305,0.3587983548641205,-0.02415185421705246,0.0016450295224785805,0.0,0.03106808476150036,0.8243449330329895,0.8201259036485529,3.5051138401031494,1.7991148233413696,3.536181926727295,1.9436792135238647,4.5811872482299805,2.79420804977417,,,,,,
8514116000.0,233.92,9.319999694824219,6529777152.0,3546.796691544325,89.0,0.01907626911997795,1474560.0,1568.3996279239655,0.005099777597934008,0.0550537109375,2.397562026977539,-0.022442152723670006,0.40436747670173645,-0.023975618183612823,0.001533467322587967,0.0,0.022418050095438957,0.8519514203071594,0.7864425389412308,3.7067575454711914,1.6618608236312866,3.729175329208374,1.8435604572296143,4.61937952041626,2.797628164291382,,,,,,
8514116000.0,236.03,10.119999885559082,6529777152.0,3492.0692144364825,90.0,0.02224557101726532,1490944.0,1573.091402053833,0.007461384870111942,0.0823974609375,2.384511709213257,-0.020737299695611,0.45288047194480896,-0.023845115676522255,0.0031078215688467026,0.0,-0.016746219247579575,0.8485197424888611,0.8118884671995757,4.242190361022949,1.7829235792160034,4.2254438400268555,1.956384539604187,4.691774129867554,2.796947956085205,,,,,,
8514116000.0,246.04,11.010000228881836,6529777152.0,3597.881188702504,91.0,0.022090211510658264,1507328.0,1577.6451933383942,0.007160384673625231,0.0859375,2.3643720149993896,-0.021880105137825012,0.5121804475784302,-0.023643720895051956,0.0017636152915656567,0.0,-0.008425988256931305,0.9906917214393616,0.7804031862916027,4.80731725692749,1.9562028646469116,4.798891067504883,2.1140995025634766,4.553791284561157,2.7738287448883057,,,,,,
8514116000.0,252.76,11.020000457763672,6529777152.0,3486.966184187706,92.0,0.021686475723981857,1523712.0,1582.3438336849213,0.005624311976134777,0.06829833984375,2.3646278381347656,-0.021245498210191727,0.4976508617401123,-0.02364627830684185,0.0024007796309888363,0.0,-0.06771950423717499,0.9815080165863037,0.7863831159157132,4.950453281402588,1.9771806001663208,4.8827338218688965,2.1236162185668945,4.6986403465271,2.8406457901000977,,,,,,
8514116000.0,257.46,11.529999732971191,6529777152.0,3511.9370348641105,93.0,0.024463161826133728,1540096.0,1587.0090653896332,0.004625733010470867,0.04779052734375,2.3666439056396484,-0.022221263498067856,0.4351547360420227,-0.023666441440582275,0.001445177011191845,0.0,-0.00842265971004963,0.9086208343505859,0.8037417594134165,4.850724220275879,1.9080859422683716,4.842301368713379,2.0510149002075195,4.665231704711914,2.7868447303771973,,,,,,
8514116000.0,278.97,12.619999885559082,6529777152.0,3520.7555672755575,94.0,0.024806106463074684,1556480.0,1591.6626119613647,0.005701836664229631,0.06878662109375,2.35014271736145,-0.021194640547037125,0.5318145155906677,-0.023501427844166756,0.0023067817091941833,0.0,-0.006374879274517298,0.9795569181442261,0.7485929517037996,5.164445877075195,1.7353792190551758,5.158071517944336,1.9536248445510864,4.653546571731567,2.782219886779785,,,,,,
8514340000.0,268.47,11.760000228881836,6529777152.0,3495.7835470854393,95.0,0.01865009404718876,1572864.0,1596.3494009971619,0.009227992966771126,0.109130859375,2.35737681388855,-0.019421612843871117,0.5169516801834106,-0.023573769256472588,0.004152157809585333,0.0,-0.06902366876602173,0.9477218985557556,0.7753505733461306,5.804708003997803,1.8043612241744995,5.735684394836426,1.999531626701355,4.686789035797119,2.780252456665039,,,,,,
,,,,,,,,,,,,,,,,,,,,,,,,,,0.07506357133388519,1.4278892278671265,1.6742358207702637,0.07506357133388519,1.4278892278671265,1.6742358207702637
,,,,,,,,,,,,,,,,,,,,,,,,,,0.039792656898498535,1.1601269245147705,1.30453360080719,0.039792656898498535,1.1601269245147705,1.30453360080719
,,,,,,,,,,,,,,,,,,,,,,,,,,0.03540526703000069,1.1091293096542358,1.1726949214935303,0.03540526703000069,1.1091293096542358,1.1726949214935303
,,,,,,,,,,,,,,,,,,,,,,,,,,0.0331542082130909,1.0421884059906006,1.0895336866378784,0.0331542082130909,1.0421884059906006,1.0895336866378784
,,,,,,,,,,,,,,,,,,,,,,,,,,0.0326182097196579,1.0162031650543213,1.0456637144088745,0.0326182097196579,1.0162031650543213,1.0456637144088745
,,,,,,,,,,,,,,,,,,,,,,,,,,0.032126039266586304,0.9738739728927612,1.0058573484420776,0.032126039266586304,0.9738739728927612,1.0058573484420776
8514868000.0,285.89,12.3100004196167,6327188480.0,28.230184611350552,96.0,0.0238825473934412,1589248.0,2176.7210927009583,0.007210733834654093,0.090087890625,2.3789069652557373,-0.02176489681005478,0.3587797284126282,-0.023789068683981895,0.002024170244112611,0.0,0.18062838912010193,0.8512759804725647,0.792971465393359,2.772303342819214,1.6904205083847046,2.9529316425323486,1.870920181274414,580.3716917037964,2.8216755390167236,,,,,,
8514868000.0,282.01,12.220000267028809,6529777152.0,3550.331982643539,97.0,0.022693980485200882,1605632.0,2181.335872411728,0.004110222682356834,0.04229736328125,2.410675525665283,-0.021256573498249054,0.32941070199012756,-0.02410675399005413,0.0028501786291599274,0.0,0.18306227028369904,0.8033196926116943,0.8285291836658949,3.072499990463257,1.7789140939712524,3.2555623054504395,1.939962387084961,4.614779710769653,2.7586333751678467,,,,,,
8514868000.0,291.76,13.460000038146973,6529777152.0,3542.519905355437,98.0,0.020758729428052902,1622016.0,2185.960828781128,0.004247755743563175,0.0474853515625,2.389056444168091,-0.021927528083324432,0.317908376455307,-0.02389056235551834,0.001963036134839058,0.0,0.17622463405132294,0.7880108952522278,0.8096195171190544,3.1556196212768555,1.5972752571105957,3.3318443298339844,1.8060139417648315,4.624956369400024,2.7792389392852783,,,,,,
8514868000.0,307.84,14.199999809265137,6529777152.0,3510.2919835292905,99.0,0.02724292501807213,1638400.0,2190.62824678421,0.003276642644777894,0.03167724609375,2.372140645980835,-0.022890422493219376,0.375495046377182,-0.02372140809893608,0.0008309856057167053,0.0,0.18577620387077332,0.848536491394043,0.8271873070130493,3.410252094268799,1.880649209022522,3.5960283279418945,2.041186809539795,4.667418003082275,2.7653117179870605,,,,,,
8514868000.0,312.75,15.149999618530273,6529777152.0,3525.825081726446,100.0,0.023435888811945915,1654784.0,2195.275102376938,0.004040445201098919,0.042724609375,2.3622233867645264,-0.022091295570135117,0.2928617596626282,-0.023622235283255577,0.0015309411101043224,0.0,0.18269559741020203,0.7634866237640381,0.8348148216365656,3.675800323486328,1.67854642868042,3.8584957122802734,1.878520131111145,4.646855592727661,2.758096218109131,,,,,,
8514868000.0,316.12,15.710000038146973,6529777152.0,3564.5483431285675,101.0,0.025294486433267593,1671168.0,2199.871477127075,0.004393370356410742,0.0489501953125,2.3690176010131836,-0.022457266226410866,0.3351069688796997,-0.023690175265073776,0.0012329071760177612,0.0,0.18261614441871643,0.8060877919197083,0.8484909264885102,3.817952871322632,1.9105639457702637,4.000568866729736,2.070918321609497,4.596374750137329,2.7585954666137695,,,,,,
8514868000.0,319.29,14.789999961853027,6529777152.0,3501.2267244475374,102.0,0.021364960819482803,1687552.0,2204.5509798526764,0.004702931270003319,0.05108642578125,2.3426127433776855,-0.022335954010486603,0.4628262221813202,-0.023426128551363945,0.0010901759378612041,0.0,0.0972093716263771,0.9634853601455688,0.7498724562691124,3.8586175441741943,1.8310922384262085,3.955826997756958,1.9264793395996094,4.679502725601196,2.7502927780151367,,,,,,
8514868000.0,322.9,14.90999984741211,6529777152.0,3583.2041104961772,103.0,0.026026934385299683,1703936.0,2209.1234238147736,0.005321706645190716,0.06634521484375,2.345966100692749,-0.022092364728450775,0.31836289167404175,-0.02345966175198555,0.0013673007488250732,0.0,0.25090473890304565,0.7926132678985596,0.8321632465506201,4.381167411804199,1.7974666357040405,4.632071495056152,1.9347174167633057,4.572443962097168,2.7468416690826416,,,,,,
8514868000.0,336.91,17.700000762939453,6529777152.0,3440.0475410981685,104.0,0.02788124978542328,1720320.0,2213.8861486911774,0.005578182637691498,0.06353759765625,2.3387389183044434,-0.021792996674776077,0.2948440611362457,-0.02338738925755024,0.0015943916514515877,0.0,0.1551842838525772,0.7374167442321777,0.8590552704090343,4.1241984367370605,1.8090447187423706,4.279382705688477,1.9642139673233032,4.762724876403809,2.7637312412261963,,,,,,
8514868000.0,337.33,17.270000457763672,6529777152.0,3608.751853674291,105.0,0.02645278163254261,1736704.0,2218.42622256279,0.004043763503432274,0.03790283203125,2.3260185718536377,-0.021633751690387726,0.3888399004936218,-0.02326018363237381,0.0016264314763247967,0.0,0.17604804039001465,0.8827046155929565,0.8030720164283806,4.585696220397949,1.8099660873413086,4.761743545532227,1.9891220331192017,4.540073871612549,2.7630090713500977,,,,,,
8514868000.0,333.17,16.670000076293945,6529777152.0,3490.1229193881613,106.0,0.022390417754650116,1753088.0,2223.1206130981445,0.0035007561091333628,0.0330810546875,2.3028907775878906,-0.02215653844177723,0.31539759039878845,-0.0230289064347744,0.0008723679929971695,0.0,0.12953443825244904,0.7879269123077393,0.8288072712608132,4.5371294021606445,1.7970726490020752,4.666663646697998,1.9043339490890503,4.694390535354614,2.760390281677246,,,,,,
8514868000.0,343.41,17.860000610351562,6529777152.0,3634.5129213683113,107.0,0.030554261058568954,1769472.0,2227.628507375717,0.0037284058053046465,0.0369873046875,2.2755286693573,-0.021789636462926865,0.3682502210140228,-0.02275528758764267,0.0009656513575464487,0.0,0.20081304013729095,0.8395434021949768,0.8207499558133726,4.930552959442139,1.84098482131958,5.13136625289917,1.9829593896865845,4.507894277572632,2.7625505924224854,,,,,,
8514868000.0,352.77,19.200000762939453,6529777152.0,3468.1355922144003,108.0,0.024914618581533432,1785856.0,2232.3526594638824,0.004852317273616791,0.050537109375,2.280512571334839,-0.02170407772064209,0.45490655303001404,-0.022805126383900642,0.0011010468006134033,0.0,0.15160027146339417,0.929154098033905,0.7558059992682058,5.209474563598633,1.7708464860916138,5.361075401306152,1.8802709579467773,4.724152088165283,2.7641472816467285,,,,,,
8514868000.0,352.18,19.09000015258789,6529777152.0,3550.598152000859,109.0,0.026114828884601593,1802240.0,2236.967093229294,0.0034677041694521904,0.03857421875,2.2629311084747314,-0.02090201899409294,0.31896352767944336,-0.022629309445619583,0.0017272913828492165,0.0,0.15551364421844482,0.7614190578460693,0.8114688847629021,5.066791534423828,1.6418204307556152,5.2223052978515625,1.7536062002182007,4.614433765411377,2.758241891860962,,,,,,
8514868000.0,360.34,19.780000686645508,6529777152.0,3416.369682650049,110.0,0.03123074769973755,1818624.0,2241.7628271579742,0.004132886882871389,0.040771484375,2.2670278549194336,-0.02058470994234085,0.3348652720451355,-0.022670278325676918,0.002085566520690918,0.0,0.1658925861120224,0.8016311526298523,0.8071229264083758,5.647799015045166,1.6298073530197144,5.81369161605835,1.8252989053726196,4.79573392868042,2.759864568710327,,,,,,
8514868000.0,360.13,20.010000228881836,6529777152.0,3546.7066284591106,111.0,0.024814946576952934,1835008.0,2246.3823239803314,0.004946412984281778,0.05328369140625,2.2347872257232666,-0.02059851586818695,0.2929530441761017,-0.022347871214151382,0.0017493544146418571,0.0,0.14678174257278442,0.7463390231132507,0.7982337916998599,5.887383460998535,1.5783376693725586,6.034164905548096,1.6615437269210815,4.619496822357178,2.7620348930358887,,,,,,
8514868000.0,355.83,18.90999984741211,6529777152.0,3556.67272678904,112.0,0.02768033742904663,1851392.0,2250.988876581192,0.004922577645629644,0.05078125,2.239152669906616,-0.018765902146697044,0.3533885180950165,-0.02239152416586876,0.0036256220191717148,0.0,0.02313445881009102,0.8280961513519287,0.8027993872782591,5.722967624664307,1.700987696647644,5.746102333068848,1.8647760152816772,4.606552600860596,2.7532756328582764,,,,,,
8514868000.0,355.64,18.1200008392334,6529777152.0,3518.528183947924,113.0,0.02549118362367153,1867776.0,2255.645369052887,0.004113724455237389,0.0411376953125,2.258065938949585,-0.019821425899863243,0.3288487195968628,-0.02258065901696682,0.002759230323135853,0.0,0.07908214628696442,0.814201831817627,0.7790293302614947,5.738616466522217,1.6667300462722778,5.8176984786987305,1.7320665121078491,4.656492471694946,2.771385908126831,,,,,,
8514868000.0,357.34,18.780000686645508,6529777152.0,3564.5357701969033,114.0,0.027229182422161102,1884160.0,2260.2417600154877,0.004670254420489073,0.05328369140625,2.245544910430908,-0.020662307739257812,0.22586332261562347,-0.022455448284745216,0.001793142408132553,0.0,0.1988200843334198,0.6561335921287537,0.8150699431049391,5.603514671325684,1.3925870656967163,5.802334785461426,1.5257681608200073,4.596390962600708,2.7529382705688477,,,,,,
8514868000.0,388.38,22.0,6529777152.0,3519.7383294330116,115.0,0.030697986483573914,1900544.0,2264.896651506424,0.00645906338468194,0.0745849609375,2.251183032989502,-0.019816741347312927,0.276113361120224,-0.022511832416057587,0.0026950854808092117,0.0,0.15150967240333557,0.7112149000167847,0.818213999174136,5.728492736816406,1.5303819179534912,5.880002975463867,1.6680948734283447,4.654891490936279,2.7658658027648926,,,,,,
8514868000.0,374.44,20.399999618530273,6529777152.0,3535.2143747273462,116.0,0.023236198350787163,1916928.0,2269.5311653614044,0.005876637063920498,0.06683349609375,2.2373805046081543,-0.019393663853406906,0.2973083257675171,-0.022373802959918976,0.0029801400378346443,0.0,0.08440917730331421,0.7500602602958679,0.7989510107350285,5.9271087646484375,1.5034692287445068,6.011517524719238,1.6728029251098633,4.634513854980469,2.7560112476348877,,,,,,
8514868000.0,367.61,19.389999389648438,6529777152.0,3550.9999580408335,117.0,0.029735084623098373,1933312.0,2274.1450769901276,0.0047442251816391945,0.048828125,2.2400765419006348,-0.019484683871269226,0.3041876256465912,-0.022400762885808945,0.0029160839039832354,0.0,0.07185755670070648,0.7608612179756165,0.7915948506355055,6.139723777770996,1.5448631048202515,6.211581230163574,1.6666752099990845,4.6139116287231445,2.765718936920166,,,,,,
8514868000.0,379.31,20.600000381469727,6529777152.0,3467.88566750091,118.0,0.028466278687119484,1949696.0,2278.869569540024,0.0034473082050681114,0.0338134765625,2.2238552570343018,-0.019619397819042206,0.2819710671901703,-0.02223854884505272,0.0026191528886556625,0.0,0.1583481729030609,0.7217525839805603,0.8060750325114517,5.991020202636719,1.4850202798843384,6.149368762969971,1.6389716863632202,4.72449254989624,2.753769874572754,,,,,,
8514868000.0,375.69,20.350000381469727,6529777152.0,3539.0628444908907,119.0,0.02475849539041519,1966080.0,2283.499043703079,0.004471232183277607,0.0479736328125,2.2422499656677246,-0.021173955872654915,0.2821478545665741,-0.02242249809205532,0.0012485422194004059,0.0,0.11454425752162933,0.6926761269569397,0.8197345574486816,6.012503623962402,1.50888991355896,6.127048015594482,1.6314517259597778,4.62947416305542,2.831815719604492,,,,,,
8514868000.0,378.68,21.09000015258789,6529777152.0,3480.7080709634256,120.0,0.032208241522312164,1982464.0,2288.2061319351196,0.006422937382012606,0.07623291015625,2.2665657997131348,-0.019255483523011208,0.2775295376777649,-0.022665658965706825,0.0034101735800504684,0.0,0.14967042207717896,0.7218449711799622,0.7856828602277719,6.099847793579102,1.3997231721878052,6.249517917633057,1.5592495203018188,4.707088232040405,2.7655718326568604,,,,,,
8514868000.0,375.74,21.200000762939453,6529777152.0,3437.1594849643384,121.0,0.02955012395977974,1998848.0,2292.9728586673737,0.005516492296010256,0.0689697265625,2.279635429382324,-0.020858440548181534,0.2703842222690582,-0.022796353325247765,0.00193791463971138,0.0,0.1219787746667862,0.6888934373855591,0.8232814108222295,6.26483154296875,1.5056501626968384,6.386810302734375,1.6387425661087036,4.766726732254028,2.7537641525268555,,,,,,
8514868000.0,376.18,21.440000534057617,6529777152.0,3558.085553969455,122.0,0.027604227885603905,2015232.0,2297.5775821208954,0.008185308426618576,0.09197998046875,2.278502941131592,-0.019926870241761208,0.3088817000389099,-0.02278502844274044,0.0028581544756889343,0.0,0.07130081951618195,0.7459065318107605,0.7934053521516782,6.196141242980957,1.4945383071899414,6.267442226409912,1.6410622596740723,4.6047234535217285,2.761687994003296,,,,,,
8514868000.0,386.02,21.440000534057617,6529777152.0,3600.948407322767,123.0,0.026304729282855988,2031616.0,2302.127494573593,0.004004383459687233,0.045654296875,2.285568952560425,-0.022906212136149406,0.27671942114830017,-0.022855687886476517,-5.051959306001663e-05,0.0,0.1258186250925064,0.731391429901123,0.7671241599433136,6.529265403747559,1.4663712978363037,6.655083656311035,1.5156084299087524,4.549912452697754,2.771831512451172,,,,,,
8514868000.0,386.27,21.8700008392334,6529777152.0,3577.5485222248562,124.0,0.03005525842308998,2048000.0,2306.7071669101715,0.0038506779819726944,0.045654296875,2.2764432430267334,-0.022422073408961296,0.26164358854293823,-0.022764433175325394,0.0003423576708883047,0.0,0.1436196118593216,0.715834379196167,0.7750481124531008,6.631715297698975,1.4056756496429443,6.775335311889648,1.509273886680603,4.579672336578369,2.783452033996582,,,,,,
8514868000.0,394.39,23.079999923706055,6529777152.0,3537.29068525234,125.0,0.03086116351187229,2064384.0,2311.3389604091644,0.0027858279645442963,0.0281982421875,2.2745907306671143,-0.02174031361937523,0.2510336935520172,-0.022745907306671143,0.0010055908933281898,0.0,0.12644816935062408,0.6855393648147583,0.7677822477044431,6.798816204071045,1.3566144704818726,6.925264358520508,1.4226057529449463,4.63179349899292,2.7692081928253174,,,,,,
8514868000.0,389.54,23.299999237060547,6529777152.0,3433.9344231460936,126.0,0.028172848746180534,2080768.0,2316.1101639270782,0.003278300166130066,0.031982421875,2.294947624206543,-0.021208245307207108,0.2514987885951996,-0.022949475795030594,0.0017412304878234863,0.0,0.08901822566986084,0.6979935765266418,0.7896723243644603,6.750092506408691,1.3727246522903442,6.839111328125,1.521960973739624,4.771203517913818,2.7654917240142822,,,,,,
8515044000.0,399.23,23.450000762939453,6529777152.0,3638.0897308417807,127.0,0.030678145587444305,2097152.0,2320.613626241684,0.003963650669902563,0.041015625,2.263183832168579,-0.020164739340543747,0.22036699950695038,-0.02263183891773224,0.002467098645865917,0.0,0.12426184862852097,0.6508622765541077,0.8074464951082402,6.9380693435668945,1.3823895454406738,7.062331199645996,1.4832446575164795,4.503462314605713,2.776592493057251,,,,,,
,,,,,,,,,,,,,,,,,,,,,,,,,,0.03833512216806412,1.244465708732605,1.0738884210586548,0.03833512216806412,1.244465708732605,1.0738884210586548
,,,,,,,,,,,,,,,,,,,,,,,,,,0.023676805198192596,1.0468720197677612,0.9496704936027527,0.023676805198192596,1.0468720197677612,0.9496704936027527
,,,,,,,,,,,,,,,,,,,,,,,,,,0.022997448220849037,0.9640507102012634,0.9041309952735901,0.022997448220849037,0.9640507102012634,0.9041309952735901
,,,,,,,,,,,,,,,,,,,,,,,,,,0.021953077986836433,0.9395501613616943,0.8892608284950256,0.021953077986836433,0.9395501613616943,0.8892608284950256
,,,,,,,,,,,,,,,,,,,,,,,,,,0.020666051656007767,0.883722186088562,0.8473814725875854,0.020666051656007767,0.883722186088562,0.8473814725875854
,,,,,,,,,,,,,,,,,,,,,,,,,,0.02090778574347496,0.8588324189186096,0.8326621651649475,0.02090778574347496,0.8588324189186096,0.8326621651649475
8515044000.0,404.31,24.40999984741211,6327188480.0,28.256942870901597,128.0,0.02637472189962864,2113536.0,2900.4357278347015,0.005015010479837656,0.052734375,2.2800674438476562,-0.02112235315144062,0.25113821029663086,-0.02280067279934883,0.00167832151055336,0.0,0.18593829870224,0.6857120990753174,0.8518687502214751,5.585406303405762,1.7017008066177368,5.7713446617126465,1.78163480758667,579.8221015930176,2.8660054206848145,,,,,,
8515044000.0,395.48,22.329999923706055,6529777152.0,3484.4295334423864,129.0,0.03135129064321518,2129920.0,2905.137788772583,0.004224566742777824,0.04656982421875,2.2553606033325195,-0.022069036960601807,0.24185770750045776,-0.02255360595881939,0.0004845689982175827,0.0,0.16943471133708954,0.7007685303688049,0.8674404624123774,5.724059104919434,1.8236029148101807,5.89349365234375,1.9247263669967651,4.70206093788147,2.753683090209961,,,,,,
8515044000.0,381.69,20.959999084472656,6529777152.0,3579.3131591596007,130.0,0.027348987758159637,2146304.0,2909.7152032852173,0.0032083962578326464,0.02569580078125,2.2645437717437744,-0.02116810530424118,0.2813661992549896,-0.022645438089966774,0.0014773278962820768,0.0,0.14918389916419983,0.7545561790466309,0.8369983632740606,6.055950164794922,1.7604708671569824,6.20513391494751,1.8689416646957397,4.577414512634277,2.7467424869537354,,,,,,
8515044000.0,377.74,21.31999969482422,6529777152.0,3529.61324071144,131.0,0.027929462492465973,2162688.0,2914.3570716381073,0.0034374373499304056,0.03961181640625,2.2544965744018555,-0.021892420947551727,0.2601475417613983,-0.022544965147972107,0.0006525442004203796,0.0,0.14285387098789215,0.7199942469596863,0.7972331229495176,6.105183124542236,1.513969898223877,6.248036861419678,1.5989341735839844,4.641868352890015,2.7646868228912354,,,,,,
8515044000.0,382.49,22.040000915527344,6529777152.0,3554.185146216887,132.0,0.03207563981413841,2179072.0,2918.966848373413,0.0037381653673946857,0.03656005859375,2.2463250160217285,-0.020116670057177544,0.2657148241996765,-0.022463250905275345,0.002346580848097801,0.0,0.1291700005531311,0.7247209548950195,0.8310045559921284,6.405823230743408,1.6381831169128418,6.5349931716918945,1.7629222869873047,4.609776735305786,2.7498977184295654,,,,,,
8515044000.0,369.66,21.059999465942383,6529777152.0,3531.912228229054,133.0,0.027298524975776672,2195456.0,2923.60569524765,0.0049741873517632484,0.05596923828125,2.2579445838928223,-0.0198822058737278,0.27880585193634033,-0.02257944457232952,0.0026972386986017227,0.0,0.11682859063148499,0.7301459312438965,0.840400250222748,6.422296047210693,1.7144066095352173,6.539124488830566,1.8276524543762207,4.6388468742370605,2.761455774307251,,,,,,
8515044000.0,378.83,22.239999771118164,6529777152.0,3628.4826193197473,134.0,0.02930242195725441,2211840.0,2928.121081352234,0.008991089649498463,0.10394287109375,2.249279499053955,-0.018868369981646538,0.20007362961769104,-0.022492794319987297,0.0036244280636310577,0.0,0.14004233479499817,0.6391304731369019,0.8354201664014507,6.780696868896484,1.5786077976226807,6.92073917388916,1.5754363536834717,4.51538610458374,2.7690892219543457,,,,,,
8515044000.0,384.93,22.950000762939453,6529777152.0,3488.4438698914237,135.0,0.03243982791900635,2228224.0,2932.8177313804626,0.008232209831476212,0.1094970703125,2.2358856201171875,-0.018380599096417427,0.24504292011260986,-0.022358855232596397,0.00397825613617897,0.0,0.1078922376036644,0.6887367367744446,0.8168159240177794,6.875275611877441,1.4845407009124756,6.983168125152588,1.6091991662979126,4.69665002822876,2.7633652687072754,,,,,,
8515044000.0,386.85,22.790000915527344,6529777152.0,3604.321796006526,136.0,0.02673487551510334,2244608.0,2937.363385438919,0.004776509013026953,0.05364990234375,2.2458484172821045,-0.022023266181349754,0.21423140168190002,-0.022458484396338463,0.0004352177493274212,0.0,0.10364244878292084,0.6547679305076599,0.8253262283900293,6.887632369995117,1.4412206411361694,6.991274833679199,1.5666536092758179,4.545654058456421,2.7593162059783936,,,,,,
8515044000.0,378.12,22.280000686645508,6529777152.0,3649.0074531757145,137.0,0.03435619920492172,2260992.0,2941.853373527527,0.005631291773170233,0.06146240234375,2.255394697189331,-0.019610179588198662,0.25982609391212463,-0.022553948685526848,0.002943770494312048,0.0,0.10174500942230225,0.7072566747665405,0.7814410573474688,6.993837356567383,1.386777400970459,7.095582485198975,1.51283860206604,4.489988088607788,2.762277364730835,,,,,,
8515044000.0,383.67,22.6200008392334,6529777152.0,3646.3223325731287,138.0,0.028539229184389114,2277376.0,2946.3466680049896,0.009062707424163818,0.10345458984375,2.266993522644043,-0.016929637640714645,0.23263505101203918,-0.02266993559896946,0.005740296095609665,0.0,0.10441399365663528,0.6681819558143616,0.8003691610699337,6.931674957275391,1.3541243076324463,7.0360894203186035,1.4954807758331299,4.4932944774627686,2.7566235065460205,,,,,,
8515044000.0,381.24,22.760000228881836,6529777152.0,3601.336966490908,139.0,0.027246227487921715,2293760.0,2950.896089553833,0.004012358374893665,0.04364013671875,2.2577695846557617,-0.020619381219148636,0.21015320718288422,-0.022577695548534393,0.0019583161920309067,0.0,0.06533287465572357,0.650232195854187,0.8577156656581602,7.374058723449707,1.6189234256744385,7.439391136169434,1.7238119840621948,4.549421548843384,2.7578248977661133,,,,,,
8515044000.0,388.75,22.6299991607666,6529777152.0,3465.6136710019277,140.0,0.027394244447350502,2310144.0,2955.6236793994904,0.003953663166612387,0.04534912109375,2.2524359226226807,-0.02078346349298954,0.23661848902702332,-0.022524356842041016,0.0017408952116966248,0.0,0.04079683870077133,0.6860257387161255,0.8423767567598198,7.295289039611816,1.6511181592941284,7.336085319519043,1.7279468774795532,4.727589845657349,2.760059356689453,,,,,,
8515044000.0,376.53,20.209999084472656,6529777152.0,3491.2052271746875,141.0,0.028218191117048264,2326528.0,2960.316614627838,0.0026971306651830673,0.0262451171875,2.2639429569244385,-0.021965382620692253,0.3059328496456146,-0.022639431059360504,0.000674043782055378,0.0,-0.009996524080634117,0.7821731567382812,0.7836471679729188,7.385922431945801,1.5794035196304321,7.3759260177612305,1.6815965175628662,4.692935228347778,2.7598981857299805,,,,,,
8515044000.0,377.97,21.059999465942383,6529777152.0,3602.449324365235,142.0,0.02785874903202057,2342912.0,2964.8646314144135,0.003434796817600727,0.032958984375,2.270381450653076,-0.02209601178765297,0.2217540740966797,-0.02270381711423397,0.0006078016012907028,0.0,0.06395918130874634,0.6545884609222412,0.8233612914732942,7.163758754730225,1.4481624364852905,7.227717399597168,1.5574904680252075,4.548016786575317,2.752671957015991,,,,,,
8515044000.0,392.79,22.0,6529777152.0,3579.8139845310434,143.0,0.03053954802453518,2359296.0,2969.4414055347443,0.004164192825555801,0.0430908203125,2.2457191944122314,-0.02054581046104431,0.19596663117408752,-0.022457193583250046,0.0019113845191895962,0.0,0.09649469703435898,0.6235459446907043,0.7967344099066634,7.081146240234375,1.30419921875,7.177640438079834,1.3830448389053345,4.5767741203308105,2.7545006275177,,,,,,
8515044000.0,399.03,23.020000457763672,6529777152.0,3651.2997459373137,144.0,0.029795698821544647,2375680.0,2973.9285748004913,0.0054959822446107864,0.0596923828125,2.2479894161224365,-0.019554544240236282,0.21457570791244507,-0.022479893639683723,0.0029253524262458086,0.0,0.09206070750951767,0.6511653661727905,0.7519913181797369,7.391500473022461,1.20964777469635,7.4835615158081055,1.3075520992279053,4.48716926574707,2.7516376972198486,,,,,,
8515044000.0,393.47,22.969999313354492,6529777152.0,3549.0647862126666,145.0,0.029641756787896156,2392064.0,2978.545002222061,0.005692658945918083,0.067138671875,2.258739471435547,-0.020599674433469772,0.22913551330566406,-0.02258739434182644,0.001987721771001816,0.0,0.057548657059669495,0.675509512424469,0.7805354954022118,7.6060686111450195,1.3395936489105225,7.663617134094238,1.4419465065002441,4.616427421569824,2.7601826190948486,,,,,,
8515044000.0,400.74,23.950000762939453,6529777152.0,3600.8959516545647,146.0,0.028574176132678986,2408448.0,2983.094980955124,0.00433920556679368,0.04852294921875,2.234574317932129,-0.020311374217271805,0.17903666198253632,-0.02234574407339096,0.0020343714859336615,0.0,0.08511067181825638,0.5946681499481201,0.7724169511899927,7.653651237487793,1.2077422142028809,7.738762378692627,1.246535301208496,4.549978733062744,2.764178991317749,,,,,,
8515044000.0,401.07,23.6299991607666,6529777152.0,3527.3862272484553,147.0,0.030784225091338158,2424832.0,2987.7397799491882,0.005961081013083458,0.0684814453125,2.2239999771118164,-0.019352249801158905,0.24055543541908264,-0.02223999798297882,0.0028877463191747665,0.0,0.04298952966928482,0.6915906667709351,0.6920414760564011,7.791964530944824,1.1303436756134033,7.834954261779785,1.2462445497512817,4.644798994064331,2.8156042098999023,,,,,,
8515044000.0,395.26,22.56999969482422,6529777152.0,3564.6975610166023,148.0,0.03172420710325241,2441216.0,2992.335962295532,0.0033265259116888046,0.0328369140625,2.2224199771881104,-0.021698180586099625,0.24746054410934448,-0.022224199026823044,0.00052601657807827,0.0,0.03561633452773094,0.707241952419281,0.7661947931090205,7.665137767791748,1.2501126527786255,7.700754165649414,1.4626508951187134,4.596182346343994,2.7608582973480225,,,,,,
8515044000.0,391.96,22.1299991607666,6529777152.0,3548.439680842478,149.0,0.02499236911535263,2457600.0,2996.9532029628754,0.005192176438868046,0.054931640625,2.1940670013427734,-0.019083425402641296,0.24337683618068695,-0.021940670907497406,0.0028572455048561096,0.0,0.060857269912958145,0.668536901473999,0.7644279018010638,7.607370376586914,1.261399745941162,7.668227195739746,1.3774091005325317,4.61724066734314,2.7463417053222656,,,,,,
8515044000.0,395.83,24.209999084472656,6529777152.0,3550.311255760646,150.0,0.03378129005432129,2473984.0,3001.5680096149445,0.004650555085390806,0.04888916015625,2.163600444793701,-0.019761445000767708,0.17929701507091522,-0.021636003628373146,0.001874556764960289,0.0,0.09576769173145294,0.5825274586677551,0.7526250900609653,8.049711227416992,1.0987449884414673,8.145479202270508,1.1712207794189453,4.614806652069092,2.7652626037597656,,,,,,
8515044000.0,411.48,25.6200008392334,6529777152.0,3556.411351580126,151.0,0.029187064617872238,2490368.0,3006.1749007701874,0.005649900063872337,0.06378173828125,2.1599884033203125,-0.01991565153002739,0.15516789257526398,-0.02159988135099411,0.0016842305194586515,0.0,0.09862028807401657,0.5406851172447205,0.763907827480326,8.060206413269043,1.1208157539367676,8.15882682800293,1.1127630472183228,4.60689115524292,2.8073973655700684,,,,,,
8515044000.0,417.68,26.3799991607666,6529777152.0,3499.7706306607197,152.0,0.03556997701525688,2506752.0,3010.8563504219055,0.005187918897718191,0.0574951171875,2.152047872543335,-0.019605102017521858,0.16462963819503784,-0.021520480513572693,0.00191537756472826,0.0,0.07589251548051834,0.5638473629951477,0.7731832989296111,8.017391204833984,1.114738941192627,8.093282699584961,1.183919906616211,4.68144965171814,2.756510019302368,,,,,,
8515044000.0,414.98,25.700000762939453,6529777152.0,3522.2968798116726,153.0,0.029996387660503387,2523136.0,3015.507860660553,0.005363035015761852,0.060546875,2.1453614234924316,-0.020447898656129837,0.16582491993904114,-0.0214536115527153,0.0010057108011096716,0.0,0.07128994166851044,0.563478410243988,0.7110065328339811,8.136920928955078,0.9768158793449402,8.208209991455078,1.0481657981872559,4.651510238647461,2.7654716968536377,,,,,,
8515044000.0,407.09,25.299999237060547,6529777152.0,3432.8590321571724,154.0,0.028934674337506294,2539520.0,3020.280558824539,0.00556186493486166,0.06195068359375,2.1793360710144043,-0.01725771278142929,0.1822817027568817,-0.021793359890580177,0.004535646177828312,0.0,0.03526555001735687,0.6005499958992004,0.7161751365708049,8.170435905456543,1.0300253629684448,8.20570182800293,1.1272611618041992,4.772698163986206,2.766369581222534,,,,,,
8515044000.0,392.71,23.700000762939453,6529777152.0,3537.195278034828,155.0,0.03295287489891052,2555904.0,3024.9124772548676,0.004633675329387188,0.05047607421875,2.171873092651367,-0.01989062689244747,0.22742058336734772,-0.02171872928738594,0.001828099600970745,0.0,0.01955384388566017,0.6649295091629028,0.6981445270927815,8.226926803588867,0.9849696755409241,8.246480941772461,1.2102497816085815,4.631918430328369,2.758730411529541,,,,,,
8515044000.0,388.15,23.780000686645508,6529777152.0,3641.836280406146,156.0,0.030820611864328384,2572288.0,3029.411306619644,0.0057598622515797615,0.0601806640625,2.183629035949707,-0.01633797213435173,0.16879835724830627,-0.0218362919986248,0.005498319864273071,0.0,0.05521164834499359,0.5736458897590637,0.7708956147948953,7.847043037414551,1.0542203187942505,7.902254104614258,1.1984682083129883,4.498829364776611,2.7733755111694336,,,,,,
8515044000.0,397.47,23.899999618530273,6529777152.0,3563.243450247705,157.0,0.030410610139369965,2588672.0,3034.00936460495,0.007261608727276325,0.07769775390625,2.1616413593292236,-0.017409931868314743,0.22446325421333313,-0.021616414189338684,0.004206482321023941,0.0,0.04032578319311142,0.6598074436187744,0.742555835572221,7.909741401672363,1.1534428596496582,7.950067520141602,1.3003958463668823,4.598057985305786,2.7798469066619873,,,,,,
8515044000.0,400.63,24.540000915527344,6529777152.0,3581.4279831210893,158.0,0.031016848981380463,2605056.0,3038.584076166153,0.004467993974685669,0.04534912109375,2.178699254989624,-0.019969388842582703,0.19722585380077362,-0.021786993369460106,0.0018176017329096794,0.0,0.08866548538208008,0.5960595011711121,0.7721403568850427,7.9756598472595215,1.1393390893936157,8.064325332641602,1.2486943006515503,4.574711561203003,2.7576651573181152,,,,,,
8515044000.0,399.33,24.649999618530273,6529777152.0,3547.879637163558,159.0,0.030715564265847206,2621440.0,3043.2020456790924,0.005641663447022438,0.06268310546875,2.204291820526123,-0.01981779746711254,0.1802866905927658,-0.02204291708767414,0.0022251177579164505,0.0,0.07403665035963058,0.5858404636383057,0.7860974246890906,8.140512466430664,1.1634310483932495,8.214548110961914,1.2666901350021362,4.617969512939453,2.7724227905273438,,,,,,
,,,,,,,,,,,,,,,,,,,,,,,,,,0.022541990503668785,0.6994732618331909,0.535594642162323,0.022541990503668785,0.6994732618331909,0.535594642162323
,,,,,,,,,,,,,,,,,,,,,,,,,,0.017596617341041565,0.568149745464325,0.5009244084358215,0.017596617341041565,0.568149745464325,0.5009244084358215
,,,,,,,,,,,,,,,,,,,,,,,,,,0.016340291127562523,0.5122367739677429,0.47049298882484436,0.016340291127562523,0.5122367739677429,0.47049298882484436
,,,,,,,,,,,,,,,,,,,,,,,,,,0.01634504459798336,0.4954080283641815,0.457865834236145,0.01634504459798336,0.4954080283641815,0.457865834236145
,,,,,,,,,,,,,,,,,,,,,,,,,,0.016252264380455017,0.47692975401878357,0.4508012533187866,0.016252264380455017,0.47692975401878357,0.4508012533187866
,,,,,,,,,,,,,,,,,,,,,,,,,,0.016033755615353584,0.45526695251464844,0.43554264307022095,0.016033755615353584,0.45526695251464844,0.43554264307022095
8515044000.0,400.55,24.3700008392334,6327188480.0,28.293214305059266,160.0,0.030647866427898407,2637824.0,3622.2808248996735,0.003690168261528015,0.037109375,2.183405876159668,-0.020006820559501648,0.1967601329088211,-0.021834058687090874,0.0018272381275892258,0.0,0.08181752264499664,0.6170809864997864,0.7976169338995595,7.420295238494873,1.2641924619674683,7.50211238861084,1.3716856241226196,579.078779220581,2.7957212924957275,,,,,,
8515044000.0,397.18,23.270000457763672,6529777152.0,3480.7840584549253,161.0,0.030087288469076157,2654208.0,3626.9878103733063,0.005403581075370312,0.06329345703125,2.151681661605835,-0.019766835495829582,0.22558993101119995,-0.021516816690564156,0.0017499811947345734,0.0,0.05054366588592529,0.6658668518066406,0.7626531028144136,7.50534200668335,1.2008297443389893,7.555885314941406,1.3667672872543335,4.7069854736328125,2.7475998401641846,,,,,,
8515044000.0,393.36,22.969999313354492,6529777152.0,3568.1156086567753,162.0,0.02961636893451214,2670592.0,3631.57958984375,0.013519181869924068,0.1612548828125,2.1641035079956055,-0.01570749096572399,0.2074933648109436,-0.021641036495566368,0.005933549255132675,0.0,0.08129923045635223,0.630532443523407,0.7959143271849003,7.525763511657715,1.2613216638565063,7.607063293457031,1.3957297801971436,4.591779470443726,2.75494384765625,,,,,,
8515044000.0,388.5,23.25,6529777152.0,3594.308518502827,163.0,0.031635183840990067,2686976.0,3636.1379075050354,0.007949735969305038,0.09893798828125,2.172606945037842,-0.018869008868932724,0.17816394567489624,-0.02172606810927391,0.0028570606373250484,0.0,0.07616293430328369,0.5956769585609436,0.8628643708262729,7.595224380493164,1.4857038259506226,7.671387195587158,1.608553409576416,4.5583176612854,2.7662529945373535,,,,,,
8515044000.0,386.36,23.940000534057617,6529777152.0,3588.6950615795936,164.0,0.02956770546734333,2703360.0,3640.7033553123474,0.0038767645601183176,0.0404052734375,2.165709972381592,-0.02264077216386795,0.2617517113685608,-0.021657099947333336,-0.000983667909167707,0.0,0.06511887907981873,0.717578113079071,0.7809635251625455,7.714268684387207,1.4258689880371094,7.779387474060059,1.5332438945770264,4.565447807312012,2.760807752609253,,,,,,
8515044000.0,378.86,22.510000228881836,6529777152.0,3545.69867337644,165.0,0.03063039481639862,2719744.0,3645.3241653442383,0.003698119893670082,0.03564453125,2.1836533546447754,-0.02026161178946495,0.21816760301589966,-0.021836530417203903,0.00157491909340024,0.0,0.05729712173342705,0.6548252701759338,0.814577147387296,7.686144828796387,1.36469566822052,7.743442058563232,1.5207033157348633,4.620810031890869,2.7539613246917725,,,,,,
8515044000.0,396.46,24.18000030517578,6529777152.0,3584.7895644687474,166.0,0.033944081515073776,2736128.0,3649.8945870399475,0.005559826269745827,0.0638427734375,2.1985483169555664,-0.019398018717765808,0.17929592728614807,-0.021985482424497604,0.0025874655693769455,0.0,0.07043208181858063,0.5919308662414551,0.8271096747370943,8.186738967895508,1.3262639045715332,8.257171630859375,1.4235966205596924,4.5704216957092285,2.751495838165283,,,,,,
8515044000.0,402.63,24.850000381469727,6529777152.0,3624.1060757345845,167.0,0.027796220034360886,2752512.0,3654.415426015854,0.003286292776465416,0.02734375,2.189065456390381,-0.020436206832528114,0.21454209089279175,-0.021890655159950256,0.001454448327422142,0.0,0.03956260904669762,0.6436651349067688,0.8034868706288754,7.825946807861328,1.3609155416488647,7.865509033203125,1.4519926309585571,4.520838975906372,2.7608354091644287,,,,,,
8515044000.0,400.0,24.579999923706055,6529777152.0,3604.179261031681,168.0,0.031630340963602066,2768896.0,3658.961259841919,0.0030028056353330612,0.0267333984375,2.1720871925354004,-0.020075799897313118,0.17481616139411926,-0.021720871329307556,0.0016450714319944382,0.0,0.06565381586551666,0.5855445861816406,0.8111508130958942,7.862338066101074,1.2709591388702393,7.92799186706543,1.347417950630188,4.5458338260650635,2.756812334060669,,,,,,
8515044000.0,392.32,23.65999984741211,6529777152.0,3596.4055315147903,169.0,0.029987255111336708,2785280.0,3663.5169196128845,0.003878750605508685,0.03759765625,2.1812829971313477,-0.021328164264559746,0.20191113650798798,-0.02181282639503479,0.0004846639931201935,0.0,0.061864499002695084,0.6335328221321106,0.7755815281239654,7.987549781799316,1.1845049858093262,8.04941463470459,1.3373342752456665,4.555659770965576,2.7697720527648926,,,,,,
8515044000.0,389.35,23.790000915527344,6529777152.0,3561.605185802977,170.0,0.02934272028505802,2801664.0,3668.1170926094055,0.0038962431717664003,0.037841796875,2.1813666820526123,-0.020182650536298752,0.2428789734840393,-0.021813668310642242,0.0016310177743434906,0.0,0.016550328582525253,0.6969231367111206,0.7747364468648101,7.928521156311035,1.2822602987289429,7.945071220397949,1.4683829545974731,4.600172996520996,2.759002208709717,,,,,,
8515044000.0,393.27,23.950000762939453,6529777152.0,3561.7312662626377,171.0,0.030573708936572075,2818048.0,3672.717102766037,0.005899334326386452,0.0645751953125,2.162163257598877,-0.02032438851892948,0.18993936479091644,-0.02162163332104683,0.0012972461991012096,0.0,0.056568264961242676,0.6097672581672668,0.7967035480974337,7.934528350830078,1.2998826503753662,7.991096496582031,1.3523801565170288,4.60001015663147,2.746070384979248,,,,,,
8515044000.0,395.19,24.200000762939453,6529777152.0,3601.0474734545182,172.0,0.031593747437000275,2834432.0,3677.2668900489807,0.004554996266961098,0.04620361328125,2.160381555557251,-0.019023645669221878,0.1526593267917633,-0.021603817120194435,0.0025801733136177063,0.0,0.08326871693134308,0.5528345704078674,0.7890036962308722,8.143630981445312,1.105724573135376,8.226900100708008,1.203536033630371,4.549787282943726,2.754027843475342,,,,,,
8515044000.0,405.33,25.079999923706055,6529777152.0,3599.986711379764,173.0,0.033283576369285583,2850816.0,3681.8180179595947,0.004509789869189262,0.05322265625,2.1795029640197754,-0.020251808688044548,0.14934541285037994,-0.02179502695798874,0.0015432219952344894,0.0,0.04306596517562866,0.5419381856918335,0.8359978577881281,8.298255920410156,1.2423076629638672,8.34132194519043,1.3382130861282349,4.551127910614014,2.761878252029419,,,,,,
8515044000.0,403.93,25.06999969482422,6529777152.0,3589.489106924967,174.0,0.030139941722154617,2867200.0,3686.3824558258057,0.003161816857755184,0.0283203125,2.1822102069854736,-0.02049139514565468,0.163250133395195,-0.02182210236787796,0.0013307062909007072,0.0,0.04811935871839523,0.5595759153366089,0.7755271114214346,8.40512466430664,1.101166844367981,8.45324420928955,1.1810733079910278,4.5644378662109375,2.7645092010498047,,,,,,
8515044000.0,408.83,24.979999542236328,6529777152.0,3615.720524142458,175.0,0.02963889017701149,2883584.0,3690.9137794971466,0.005124117247760296,0.05657958984375,2.173175573348999,-0.01888708956539631,0.1622008979320526,-0.021731754764914513,0.0028446614742279053,0.0,0.05416321009397507,0.5629107356071472,0.7861883097827445,8.216136932373047,1.1348421573638916,8.270299911499023,1.2173763513565063,4.531323671340942,2.766561508178711,,,,,,
8515044000.0,413.34,24.84000015258789,6529777152.0,3615.079897503919,176.0,0.030249260365962982,2899968.0,3695.445906162262,0.004714333452284336,0.05072021484375,2.172492027282715,-0.017592202872037888,0.1815928965806961,-0.021724918857216835,0.004132712259888649,0.0,0.036529429256916046,0.5993181467056274,0.7329034939424863,8.23414134979248,1.0378917455673218,8.270669937133789,1.1596332788467407,4.5321266651153564,2.7589423656463623,,,,,,
8515044000.0,411.95,25.610000610351562,6529777152.0,3544.0106993631302,177.0,0.03162773698568344,2916352.0,3700.0689170360565,0.0050597540102899075,0.06146240234375,2.1833620071411133,-0.019324220716953278,0.13524359464645386,-0.021833622828125954,0.002509400248527527,0.0,0.06654290854930878,0.5215362310409546,0.8175677435196317,8.06483268737793,1.0816344022750854,8.13137435913086,1.2210450172424316,4.623010873794556,2.7614870071411133,,,,,,
8515044000.0,404.54,24.829999923706055,6529777152.0,3538.599776734899,178.0,0.03228691592812538,2932736.0,3704.6989970207214,0.004216023720800877,0.04754638671875,2.183964729309082,-0.02031678892672062,0.16217410564422607,-0.021839644759893417,0.001522853970527649,0.0,0.029232803732156754,0.5652164220809937,0.7451544376940427,8.290229797363281,0.9979029297828674,8.319461822509766,1.119629144668579,4.630079984664917,2.761279821395874,,,,,,
8515044000.0,403.65,24.06999969482422,6529777152.0,3542.343139474998,179.0,0.029125116765499115,2949120.0,3709.324184179306,0.0027959018480032682,0.02093505859375,2.203800916671753,-0.02081284299492836,0.200726717710495,-0.022038009017705917,0.0012251697480678558,0.0,0.04562797397375107,0.6304959058761597,0.7979663026838968,8.388723373413086,1.2756891250610352,8.434350967407227,1.4027231931686401,4.625187158584595,2.759453296661377,,,,,,
8515044000.0,405.17,24.479999542236328,6529777152.0,3432.3218463554776,180.0,0.03159574419260025,2965504.0,3714.0976293087006,0.0028330315835773945,0.0238037109375,2.1889805793762207,-0.021702272817492485,0.16226178407669067,-0.021889807656407356,0.0001875343732535839,0.0,0.04565930366516113,0.5624405145645142,0.7720875793629989,8.391220092773438,1.130105972290039,8.436880111694336,1.17812979221344,4.773445129394531,2.765251636505127,,,,,,
8515044000.0,407.71,25.780000686645508,6529777152.0,3510.3472121490813,181.0,0.032074954360723495,2981888.0,3718.7649738788605,0.002382204867899418,0.01629638671875,2.1892457008361816,-0.02158464677631855,0.19131331145763397,-0.021892458200454712,0.0003078095614910126,0.0,0.05309931933879852,0.6160475611686707,0.7431827179098027,8.400419235229492,1.114403486251831,8.45351791381836,1.2156256437301636,4.667344570159912,2.818629264831543,,,,,,
8515044000.0,408.5,26.239999771118164,6529777152.0,3639.030655677614,182.0,0.031642451882362366,2998272.0,3723.267271757126,0.004752101376652718,0.04486083984375,2.189864158630371,-0.02157093957066536,0.0977790504693985,-0.02189864218235016,0.0003277026116847992,0.0,0.08450080454349518,0.4507921040058136,0.8583945906467955,8.119022369384766,1.1579201221466064,8.203521728515625,1.1979374885559082,4.502297878265381,2.7615206241607666,,,,,,
8515044000.0,411.13,26.420000076293945,6529777152.0,3573.3236429937547,183.0,0.03308038413524628,3014656.0,3727.852358818054,0.005561593919992447,0.05670166015625,2.1790568828582764,-0.01828124187886715,0.15908117592334747,-0.02179056592285633,0.003509326372295618,0.0,0.07609087973833084,0.558966875076294,0.7655098306988757,8.357495307922363,1.0683602094650269,8.433586120605469,1.1543095111846924,4.585087060928345,2.763620138168335,,,,,,
