CpuMaxMemory,EpLenMean,EpRewMean,GpuMaxMemory,IPS_total,Iter,Misc/FrameRewMean,Misc/InteractCount,Misc/TimeElapsed,Opt/approxkl,Opt/clipfrac,Opt/entropy,Opt/loss_pi,Opt/loss_vf,Opt/negent,Opt/pg,Opt/pi_kl,VFStats/AdvMean,VFStats/AdvStd,VFStats/EV,VFStats/VpredMean,VFStats/VpredStd,VFStats/VtargMean,VFStats/VtargStd,del_time,wait_optimization,scaled/pol_distance,scaled/vf_aux,scaled/vf_true,unscaled/pol_distance,unscaled/vf_aux,unscaled/vf_true
2364360000.0,82.24,-2.0299999713897705,6317166080.0,3605.11898982034,0.0,-0.014056894928216934,16384.0,4.544648885726929,0.0032622762955725193,0.0140380859375,2.705378532409668,-0.026437558233737946,0.18941770493984222,-0.02705378271639347,0.0006162207573652267,0.0,-0.20869186520576477,0.6098293662071228,0.0010279137622928314,-0.0014970595948398113,0.008441811427474022,-0.21018892526626587,0.6101430654525757,4.544648885726929,2.718339443206787,,,,,,
2563420000.0,83.74,-2.509999990463257,6519754752.0,3535.2234680538786,1.0,-0.014732595533132553,32768.0,9.179150819778442,0.00045680790208280087,0.0,2.705176830291748,-0.026689568534493446,0.20248204469680786,-0.027051769196987152,0.00036220159381628036,0.0,-0.1862090528011322,0.6136245131492615,0.0015283950219140419,-0.10564425587654114,0.0305118840187788,-0.29185330867767334,0.6140940189361572,4.634501934051514,2.734147787094116,,,,,,
2761420000.0,85.29,-2.509999990463257,6519754752.0,3501.6754225864474,2.0,-0.013633389957249165,49152.0,13.858053922653198,0.0001528985012555495,0.0,2.7068464756011963,-0.02712078206241131,0.1808459460735321,-0.02706846408545971,-5.2323099225759506e-05,0.0,-0.11248910427093506,0.5903311967849731,-0.0010088752751220564,-0.3221546709537506,0.0558713935315609,-0.43464377522468567,0.5900336503982544,4.678903102874756,2.7231016159057617,,,,,,
2959156000.0,86.31,-2.2699999809265137,6519754752.0,3528.303723544003,3.0,-0.012466846033930779,65536.0,18.5016450881958,0.00032076018396764994,0.0,2.7065768241882324,-0.02710697613656521,0.17631752789020538,-0.027065766975283623,-4.120822995901108e-05,0.0,-0.08609840273857117,0.5890235304832458,0.007532302378684852,-0.4138379395008087,0.05386725813150406,-0.49993637204170227,0.591254472732544,4.6435911655426025,2.7377145290374756,,,,,,
3157156000.0,82.04,-2.2300000190734863,6519754752.0,3628.7083250342016,4.0,-0.012648474425077438,81920.0,23.01675033569336,0.0029552301857620478,0.0205078125,2.6976048946380615,-0.02658628113567829,0.1791609227657318,-0.026976047083735466,0.0003897678107023239,0.0,-0.07295352220535278,0.59060138463974,0.03972441869269028,-0.5249917507171631,0.0664416179060936,-0.5979452133178711,0.6026935577392578,4.515105247497559,2.73217511177063,,,,,,
3354892000.0,81.7,-2.4700000286102295,6519754752.0,3609.5999246978777,5.0,-0.01401813980191946,98304.0,27.555757522583008,0.00039636594010517,0.0,2.705726146697998,-0.027187135070562363,0.19329386949539185,-0.027057260274887085,-0.00012987852096557617,0.0,-0.07893642783164978,0.6184963583946228,0.04266125234145213,-0.5197457075119019,0.08623521029949188,-0.5986821055412292,0.6321269869804382,4.539007186889648,2.742298126220703,,,,,,
3552892000.0,88.35,-2.190000057220459,6519754752.0,3608.4209979775464,6.0,-0.013536175712943077,114688.0,32.09624767303467,0.001859363866969943,0.00689697265625,2.702653169631958,-0.027792980894446373,0.18083147704601288,-0.027026532217860222,-0.0007664496079087257,0.0,-0.05569421499967575,0.5941553711891174,0.0646593763080171,-0.5893088579177856,0.11195987462997437,-0.645003080368042,0.6143488883972168,4.54049015045166,2.7407875061035156,,,,,,
3751684000.0,77.21,-2.0999999046325684,6519754752.0,3469.6246857395827,7.0,-0.01193051878362894,131072.0,36.81837224960327,0.0027802411932498217,0.0186767578125,2.6856136322021484,-0.02654193714261055,0.15877507627010345,-0.026856135576963425,0.00031419750303030014,0.0,-0.022259673103690147,0.5630409121513367,0.06820826052942786,-0.5989272594451904,0.12529051303863525,-0.6211869120597839,0.5832846164703369,4.7221245765686035,2.749734878540039,,,,,,
3948628000.0,81.47,-2.319999933242798,6519754752.0,3471.025992788171,8.0,-0.013299158774316311,147456.0,41.53859043121338,0.0014035749481990933,0.0,2.704277276992798,-0.027165643870830536,0.18585747480392456,-0.027042770758271217,-0.00012286799028515816,0.0,-0.015354445204138756,0.6007404327392578,0.13842457055237556,-0.7273318767547607,0.17511047422885895,-0.74268639087677,0.6472025513648987,4.720218181610107,2.7425577640533447,,,,,,
4146364000.0,84.76,-1.600000023841858,6519754752.0,3489.5839663161178,9.0,-0.011535419151186943,163840.0,46.23370599746704,3.779266990022734e-05,0.0,2.7070324420928955,-0.026983588933944702,0.16586056351661682,-0.02707032300531864,8.673197589814663e-05,0.0,0.0318128764629364,0.5665673017501831,0.14716067800264132,-0.7892802953720093,0.21388666331768036,-0.75746750831604,0.6135047078132629,4.695115566253662,2.7533154487609863,,,,,,
4344364000.0,86.91,-1.7100000381469727,6519754752.0,3570.7195821685887,10.0,-0.01036410965025425,180224.0,50.822136878967285,0.002453865483403206,0.02587890625,2.7000489234924316,-0.02688860334455967,0.16915670037269592,-0.027000490576028824,0.00011188909411430359,0.0,0.048436086624860764,0.5778250098228455,0.19660481026040688,-0.8741768598556519,0.22703337669372559,-0.8257408142089844,0.6446614861488342,4.588430881500244,2.7527987957000732,,,,,,
4542100000.0,78.75,-1.649999976158142,6519754752.0,3472.2564865044305,11.0,-0.01211413275450468,196608.0,55.540682315826416,0.00042322740773670375,0.0,2.7051937580108643,-0.026549652218818665,0.16519150137901306,-0.027051936835050583,0.0005022846162319183,0.0,0.051595211029052734,0.5705788731575012,0.23752107507772102,-0.8690509796142578,0.26742660999298096,-0.8174558281898499,0.6534340977668762,4.718545436859131,2.7486557960510254,,,,,,
4740100000.0,85.7,-2.2300000190734863,6519754752.0,3534.662861011441,12.0,-0.012273210100829601,212992.0,60.1759192943573,0.0007517856429331005,0.00115966796875,2.7027907371520996,-0.02778298780322075,0.1746337115764618,-0.027027906849980354,-0.0007550828158855438,0.0,0.055819712579250336,0.5900892615318298,0.3063211277984066,-0.968268632888794,0.4048060178756714,-0.9124488830566406,0.7084977626800537,4.635236978530884,2.754854917526245,,,,,,
4939156000.0,86.19,-1.5499999523162842,6519754752.0,3577.1613548903715,13.0,-0.011104509234428406,229376.0,64.75608730316162,0.003033623332157731,0.03173828125,2.6814730167388916,-0.026132233440876007,0.17488279938697815,-0.02681472897529602,0.0006824973970651627,0.0,0.09156549721956253,0.5821314454078674,0.3813298199888352,-0.9862388372421265,0.40938636660575867,-0.8946733474731445,0.7401017546653748,4.580168008804321,2.752429723739624,,,,,,
5135836000.0,87.81,-1.659999966621399,6519754752.0,3475.2319684936874,14.0,-0.011027113534510136,245760.0,69.47059273719788,0.0002540397981647402,0.0,2.6986582279205322,-0.026838291436433792,0.17945995926856995,-0.026986580342054367,0.00014828797429800034,0.0,0.10780638456344604,0.5892431139945984,0.3983337051326624,-1.0787506103515625,0.47669368982315063,-0.9709442257881165,0.7596554756164551,4.714505434036255,2.7524664402008057,,,,,,
5333836000.0,82.03,-1.9199999570846558,6519754752.0,3477.4569422830355,15.0,-0.011037126183509827,262144.0,74.18208169937134,0.0004224643635097891,0.0,2.697699546813965,-0.027019619941711426,0.17559854686260223,-0.026976993307471275,-4.262756556272507e-05,0.0,0.09480597078800201,0.5790101885795593,0.41141760531113014,-0.9767045974731445,0.468353807926178,-0.8818986415863037,0.75471431016922,4.711488962173462,2.7626304626464844,,,,,,
5531572000.0,81.54,-2.0299999713897705,6519754752.0,3634.625184939145,16.0,-0.011925984174013138,278528.0,78.68983674049377,0.0018912771483883262,0.015625,2.6815640926361084,-0.026924386620521545,0.15567676723003387,-0.026815639808773994,-0.00010875007137656212,0.0,0.06123310700058937,0.5491700172424316,0.41731778330122504,-0.8492259383201599,0.4317946135997772,-0.7879927754402161,0.7194340229034424,4.5077550411224365,2.7510862350463867,,,,,,
5729572000.0,79.0,-1.8700000047683716,6519754752.0,3521.677016505988,17.0,-0.01222984492778778,294912.0,83.34216570854187,0.0009762227418832481,0.00323486328125,2.682382583618164,-0.026760287582874298,0.16833971440792084,-0.026823822408914566,6.353994831442833e-05,0.0,0.06785464286804199,0.5763907432556152,0.47992363129711935,-0.891474723815918,0.533955454826355,-0.823620080947876,0.7992514371871948,4.652328968048096,2.766963243484497,,,,,,
5927308000.0,81.21,-1.2899999618530273,6519754752.0,3501.965933439514,18.0,-0.009019888937473297,311296.0,88.02068066596985,0.0022983618546277285,0.02130126953125,2.652211904525757,-0.02636129781603813,0.15661461651325226,-0.026522116735577583,0.00016081985086202621,0.0,0.07726843655109406,0.5328788757324219,0.4686240879661425,-0.7468177080154419,0.49392494559288025,-0.6695492267608643,0.7310172319412231,4.6785149574279785,2.7656633853912354,,,,,,
6126100000.0,82.84,-1.7200000286102295,6519754752.0,3506.4113288563317,19.0,-0.011616305448114872,327680.0,92.69326424598694,0.002040766179561615,0.01123046875,2.6860604286193848,-0.02699543535709381,0.1519218385219574,-0.02686060220003128,-0.00013484060764312744,0.0,0.020105276256799698,0.5353927612304688,0.42503850535622534,-0.618664026260376,0.4076354503631592,-0.5985586643218994,0.7060787081718445,4.67258358001709,2.7646307945251465,,,,,,
6323044000.0,79.46,-2.0,6519754752.0,3437.542387391367,20.0,-0.012395726516842842,344064.0,97.45946002006531,0.0003422807203605771,0.0,2.687932014465332,-0.027250919491052628,0.18675099313259125,-0.026879316195845604,-0.00037160515785217285,0.0,0.07920682430267334,0.5846850275993347,0.45811384547808853,-0.9640411734580994,0.5305451154708862,-0.884834349155426,0.7942696213722229,4.766195774078369,2.7656197547912598,,,,,,
6520780000.0,79.24,-2.0999999046325684,6519754752.0,3574.0694469033406,21.0,-0.012027854099869728,360448.0,102.04359030723572,0.0002610269875731319,0.0,2.6854209899902344,-0.02671828493475914,0.18796174228191376,-0.02685420773923397,0.00013592513278126717,0.0,0.17675670981407166,0.6132828593254089,0.5248082538532328,-1.213435173034668,0.6861674189567566,-1.036678433418274,0.8896647095680237,4.58413028717041,2.7664973735809326,,,,,,
6718780000.0,76.61,-1.2999999523162842,6519754752.0,3445.370913698567,22.0,-0.010140435770154,376832.0,106.79895639419556,0.0016242379788309336,0.007568359375,2.6740126609802246,-0.02673257887363434,0.15341663360595703,-0.026740126311779022,7.549300789833069e-06,0.0,0.16144615411758423,0.5480454564094543,0.5383733549563163,-1.0647248029708862,0.5720947980880737,-0.9032787084579468,0.8066239356994629,4.755366086959839,2.7637014389038086,,,,,,
6916516000.0,80.18,-1.6299999952316284,6519754752.0,3537.2238632451076,23.0,-0.013043205253779888,393216.0,111.430837392807,0.0035863269586116076,0.021484375,2.63653826713562,-0.02698332443833351,0.16154074668884277,-0.026365384459495544,-0.0006179404444992542,0.0,0.103586345911026,0.5579380393028259,0.5727204211493402,-0.9187361598014832,0.6450379490852356,-0.8151497840881348,0.8535518050193787,4.63188099861145,2.7705299854278564,,,,,,
7114516000.0,73.56,-2.0,6519754752.0,3448.8115203628226,24.0,-0.011554373428225517,409600.0,116.18145942687988,0.0026991618797183037,0.02801513671875,2.618522882461548,-0.025468213483691216,0.1447894424200058,-0.026185227558016777,0.0007170122116804123,0.0,0.059617072343826294,0.5086934566497803,0.554701278773395,-0.6348999738693237,0.5558267831802368,-0.5752828121185303,0.76230788230896,4.750622034072876,2.824672222137451,,,,,,
7313308000.0,77.18,-1.8600000143051147,6519754752.0,3403.3941654721843,25.0,-0.010551882907748222,425984.0,120.99547719955444,0.002564387395977974,0.0130615234375,2.6423492431640625,-0.02564604952931404,0.12922580540180206,-0.026423491537570953,0.0007774399127811193,0.0,0.047378189861774445,0.49264800548553467,0.5758188010145755,-0.6333707571029663,0.554618239402771,-0.5859925746917725,0.7564165592193604,4.8140177726745605,2.8137128353118896,,,,,,
7510252000.0,77.34,-1.600000023841858,6519754752.0,3499.8650991375407,26.0,-0.009214991703629494,442368.0,125.67680048942566,0.0006225629476830363,6.103515625e-05,2.627690315246582,-0.025699643418192863,0.11487246304750443,-0.026276901364326477,0.0005772593431174755,0.0,0.08419304341077805,0.4615318179130554,0.619439763300922,-0.6312269568443298,0.6018880009651184,-0.547033965587616,0.7481521368026733,4.681323289871216,2.771378755569458,,,,,,
7708252000.0,78.28,-1.350000023841858,6519754752.0,3471.6028973353527,27.0,-0.01041383109986782,458752.0,130.39623427391052,0.0028922511264681816,0.01910400390625,2.6122684478759766,-0.02617911994457245,0.12051451951265335,-0.02612268552184105,-5.643395707011223e-05,0.0,0.05354283004999161,0.48495909571647644,0.5905577041635774,-0.5758227109909058,0.5591654181480408,-0.5222798585891724,0.7578945159912109,4.719433784484863,2.8011484146118164,,,,,,
7905988000.0,77.36,-1.7799999713897705,6519754752.0,3522.2911025593185,28.0,-0.011339385993778706,475136.0,135.04775214195251,0.0009439156856387854,0.0,2.6445021629333496,-0.026206519454717636,0.13929219543933868,-0.026445019990205765,0.0002384968101978302,0.0,0.041637204587459564,0.515293300151825,0.5698728935372736,-0.5580629110336304,0.5734151005744934,-0.5164257287979126,0.7856988310813904,4.651517868041992,2.799900770187378,,,,,,
8103724000.0,77.19,-1.600000023841858,6519754752.0,3477.1013391495953,29.0,-0.008411657065153122,491520.0,139.75972294807434,0.0005079819238744676,0.0001220703125,2.645960569381714,-0.02657424286007881,0.10320305824279785,-0.026459602639079094,-0.00011464022099971771,0.0,0.06536070257425308,0.43305355310440063,0.6228052442134417,-0.5112301111221313,0.5696571469306946,-0.44586941599845886,0.7051131129264832,4.711970806121826,2.7795467376708984,,,,,,
8301724000.0,74.68,-1.2300000190734863,6519754752.0,3531.2408894498903,30.0,-0.008469339460134506,507904.0,144.3994517326355,0.003373534884303808,0.026123046875,2.5975892543792725,-0.02593553625047207,0.10898841172456741,-0.025975892320275307,4.035700112581253e-05,0.0,0.06030481681227684,0.40804845094680786,0.6527857861926507,-0.4348958134651184,0.5752618908882141,-0.37459099292755127,0.6924892067909241,4.639728784561157,2.780911445617676,,,,,,
8500516000.0,73.15,-1.3200000524520874,6519754752.0,3435.792942301588,31.0,-0.01033282745629549,524288.0,149.16807436943054,0.0014376454055309296,0.00567626953125,2.6240618228912354,-0.025558659806847572,0.0861821398139,-0.026240618899464607,0.0006819586269557476,0.0,0.020130079239606857,0.4107734262943268,0.6381914077644252,-0.43311959505081177,0.4966822862625122,-0.4129895269870758,0.6829090714454651,4.768622636795044,2.8064770698547363,,,,,,
,,,,,,,,,,,,,,,,,,,,,,,,,,0.0011463530827313662,0.19735881686210632,0.16519103944301605,0.0011463530827313662,0.19735881686210632,0.16519103944301605
,,,,,,,,,,,,,,,,,,,,,,,,,,0.0008979829726740718,0.14368504285812378,0.13597778975963593,0.0008979829726740718,0.14368504285812378,0.13597778975963593
,,,,,,,,,,,,,,,,,,,,,,,,,,0.000720338081009686,0.129753977060318,0.1273842751979828,0.000720338081009686,0.129753977060318,0.1273842751979828
,,,,,,,,,,,,,,,,,,,,,,,,,,0.0008070754702202976,0.12323972582817078,0.12137198448181152,0.0008070754702202976,0.12323972582817078,0.12137198448181152
,,,,,,,,,,,,,,,,,,,,,,,,,,0.0005970460479147732,0.11883091926574707,0.11629676818847656,0.0005970460479147732,0.11883091926574707,0.11629676818847656
,,,,,,,,,,,,,,,,,,,,,,,,,,0.0005270270630717278,0.11608310788869858,0.11404401063919067,0.0005270270630717278,0.11608310788869858,0.11404401063919067
8512568000.0,79.33,-1.409999966621399,6327188480.0,28.04947872332632,32.0,-0.009308867156505585,540672.0,733.2787511348724,0.0041900319047272205,0.03973388671875,2.6032652854919434,-0.028940225020051003,0.07852193713188171,-0.02603265456855297,-0.0029075718484818935,0.0,0.08717562258243561,0.40910783410072327,0.6978055986339182,-0.6269760131835938,0.5464187264442444,-0.5398004055023193,0.7442084550857544,584.1106767654419,2.7942135334014893,,,,,,
8512568000.0,77.29,-1.0299999713897705,6529777152.0,3358.668538581459,33.0,-0.007188457064330578,557056.0,738.1568746566772,0.002852837322279811,0.01898193359375,2.56282114982605,-0.026962287724018097,0.04620421305298805,-0.025628212839365005,-0.0013340767472982407,0.0,0.09521853923797607,0.31901249289512634,0.7660664260354403,-0.440492182970047,0.5945853590965271,-0.3452736437320709,0.6595708131790161,4.87812352180481,2.947648763656616,,,,,,
8512568000.0,73.15,-1.2799999713897705,6529777152.0,3489.8051278384464,34.0,-0.007394243963062763,573440.0,742.8516926765442,0.0053544542752206326,0.0621337890625,2.5410404205322266,-0.02627011388540268,0.051417455077171326,-0.025410402566194534,-0.0008597115520387888,0.0,0.052242740988731384,0.33453240990638733,0.7717429788990933,-0.2849302291870117,0.6419036984443665,-0.23268747329711914,0.700206458568573,4.694818019866943,2.786363363265991,,,,,,
8512568000.0,72.1,-1.2599999904632568,6529777152.0,3546.0591143701527,35.0,-0.008469667285680771,589824.0,747.4720330238342,0.001498491270467639,0.0126953125,2.5992305278778076,-0.02808009274303913,0.05210881680250168,-0.02599230594933033,-0.0020877867937088013,0.0,0.027030717581510544,0.33710557222366333,0.7986074029533747,-0.3055497407913208,0.6984269022941589,-0.27851900458335876,0.7511802315711975,4.620340347290039,2.7732040882110596,,,,,,
8512568000.0,73.71,-0.949999988079071,6529777152.0,3546.035509646637,36.0,-0.005282755941152573,606208.0,752.092404127121,0.0025186347775161266,0.02001953125,2.6171412467956543,-0.025915781036019325,0.057430341839790344,-0.026171408593654633,0.0002556256949901581,0.0,-0.0019415864953771234,0.316638708114624,0.769772182809731,-0.16822506487369537,0.5785207748413086,-0.17016664147377014,0.6599106192588806,4.620371103286743,2.771751642227173,,,,,,
8512568000.0,72.93,-0.36000001430511475,6529777152.0,3560.6337611584127,37.0,-0.002793720457702875,622592.0,756.6938321590424,0.0021975357085466385,0.021240234375,2.586521863937378,-0.026330091059207916,0.04047932103276253,-0.025865215808153152,-0.0004648752510547638,0.0,0.07002612948417664,0.2876931130886078,0.7727128849547813,-0.2993401288986206,0.5575072169303894,-0.22931401431560516,0.6034510135650635,4.601428031921387,2.780325174331665,,,,,,
8512568000.0,71.59,-0.05999999865889549,6529777152.0,3517.0308467244586,38.0,-0.0007947518606670201,638976.0,761.3523070812225,0.0023285867646336555,0.019775390625,2.6195333003997803,-0.027565278112888336,0.0352177694439888,-0.026195332407951355,-0.0013699426781386137,0.0,0.05662114918231964,0.2702842652797699,0.7438331059433309,-0.15697520971298218,0.4845122694969177,-0.10035406053066254,0.5340221524238586,4.658474922180176,2.7741689682006836,,,,,,
8512568000.0,77.85,0.20999999344348907,6529777152.0,3564.688870165023,39.0,0.0015681430231779814,655360.0,765.9485006332397,0.003998788073658943,0.0433349609375,2.6362457275390625,-0.026765644550323486,0.03898385167121887,-0.026362458243966103,-0.00040318723767995834,0.0,0.06326984614133835,0.2802453935146332,0.7112397699887913,-0.08571425080299377,0.5177351236343384,-0.022444410249590874,0.5215186476707458,4.596193552017212,2.766484498977661,,,,,,
8512568000.0,80.56,0.1899999976158142,6529777152.0,3514.771319268106,40.0,0.0027242007199674845,671744.0,770.609970331192,0.007927363738417625,0.081787109375,2.623314142227173,-0.022793564945459366,0.033037882298231125,-0.026233140379190445,0.0034395772963762283,0.0,0.026053721085190773,0.260689914226532,0.6070344474626254,0.10711926221847534,0.3489198684692383,0.13317298889160156,0.41585978865623474,4.6614696979522705,2.7757976055145264,,,,,,
8512568000.0,73.64,0.46000000834465027,6529777152.0,3558.2944794856962,41.0,0.004424517508596182,688128.0,775.214423418045,0.007063858211040497,0.081787109375,2.6143031120300293,-0.02458551898598671,0.026915190741419792,-0.026143033057451248,0.0015575122088193893,0.0,0.028395986184477806,0.23970551788806915,0.5317007586920044,0.14028936624526978,0.2991902530193329,0.16868533194065094,0.3502807915210724,4.604453086853027,2.7710554599761963,,,,,,
8512568000.0,79.96,0.8399999737739563,6529777152.0,3513.1573774080484,42.0,0.004102091304957867,704512.0,779.8780345916748,0.005304824560880661,0.061279296875,2.621506690979004,-0.02449631318449974,0.040908683091402054,-0.026215067133307457,0.0017187539488077164,0.0,0.020685624331235886,0.28640058636665344,0.5902167983837916,0.18284419178962708,0.33825361728668213,0.20352981984615326,0.44740089774131775,4.663611173629761,2.7688984870910645,,,,,,
8512568000.0,83.44,1.0,6529777152.0,3543.294194346629,43.0,0.005884384736418724,720896.0,784.501980304718,0.008093028329312801,0.1011962890625,2.5831897258758545,-0.02657792717218399,0.027387872338294983,-0.02583189308643341,-0.0007460303604602814,0.0,0.04493699222803116,0.23850314319133759,0.576546455155942,0.16916438937187195,0.2962767779827118,0.2141013741493225,0.36651450395584106,4.623945713043213,2.7701594829559326,,,,,,
8512568000.0,87.51,1.0,6529777152.0,3527.8143086506802,44.0,0.007425649091601372,737280.0,789.1462156772614,0.005579079035669565,0.06829833984375,2.5780622959136963,-0.02243383601307869,0.025452746078372,-0.02578062191605568,0.0033467866014689207,0.0,0.04882742464542389,0.22459399700164795,0.6924212367958917,0.20572379231452942,0.32093334197998047,0.2545511722564697,0.4049673080444336,4.644235372543335,2.765383005142212,,,,,,
8512568000.0,81.18,1.2799999713897705,6529777152.0,3661.7810435420092,45.0,0.007830848917365074,753664.0,793.6205410957336,0.012570932507514954,0.14764404296875,2.567103147506714,-0.018885044381022453,0.03775494918227196,-0.025671031326055527,0.00678598927333951,0.0,0.03103521093726158,0.2733123004436493,0.6773295812834488,0.2758496403694153,0.3546305000782013,0.30688488483428955,0.4811490476131439,4.47432541847229,2.7745416164398193,,,,,,
8512568000.0,84.08,1.440000057220459,6529777152.0,3558.8170849378857,46.0,0.008081592619419098,770048.0,798.2243180274963,0.004249862395226955,0.04901123046875,2.592536687850952,-0.02474244125187397,0.02439720742404461,-0.02592536434531212,0.0011829249560832977,0.0,0.022028235718607903,0.2215995490550995,0.7699552364501452,0.31014513969421387,0.41265401244163513,0.3321733772754669,0.4620220363140106,4.603776931762695,2.7705483436584473,,,,,,
8512568000.0,85.73,1.159999966621399,6529777152.0,3520.6875647774045,47.0,0.008590631186962128,786432.0,802.8779544830322,0.008828036487102509,0.102783203125,2.548868179321289,-0.025722894817590714,0.03085312992334366,-0.025488682091236115,-0.00023421715013682842,0.0,0.05077227205038071,0.24282214045524597,0.7182010584539562,0.23590463399887085,0.36897745728492737,0.28667688369750977,0.4574236273765564,4.653636455535889,2.7678093910217285,,,,,,
8512568000.0,87.32,1.7200000286102295,6529777152.0,3504.0830494402758,48.0,0.010461125522851944,802816.0,807.5536427497864,0.004020241089165211,0.04638671875,2.559577703475952,-0.02438019961118698,0.037503186613321304,-0.02559577487409115,0.0012155808508396149,0.0,0.07255944609642029,0.24351182579994202,0.7303685328866875,0.24919435381889343,0.3658263087272644,0.3217537999153137,0.46895891427993774,4.67568826675415,2.7664482593536377,,,,,,
8512568000.0,88.39,1.899999976158142,6529777152.0,3447.344212215149,49.0,0.011056710034608841,819200.0,812.3062868118286,0.007319541182368994,0.091064453125,2.5258355140686035,-0.022843440994620323,0.02899695560336113,-0.02525835484266281,0.002414911985397339,0.0,0.11095061153173447,0.23200590908527374,0.7254534200149091,0.24310001730918884,0.3309088349342346,0.3540506362915039,0.44278308749198914,4.752644062042236,2.794590711593628,,,,,,
8512568000.0,100.5,2.2799999713897705,6529777152.0,3528.21369144222,50.0,0.012354440987110138,835584.0,816.949996471405,0.004330195486545563,0.05426025390625,2.535971164703369,-0.024890383705496788,0.05714855343103409,-0.025359714403748512,0.000469328835606575,0.0,0.11560435593128204,0.3314271569252014,0.5134139657378338,0.267342209815979,0.3153507113456726,0.38294655084609985,0.47512543201446533,4.643709659576416,2.7697834968566895,,,,,,
8512568000.0,94.25,2.4000000953674316,6529777152.0,3396.891748016137,51.0,0.012976379133760929,851968.0,821.7732293605804,0.007892798632383347,0.08807373046875,2.4999234676361084,-0.02296176180243492,0.027183543890714645,-0.024999234825372696,0.0020374683663249016,0.0,0.11059288680553436,0.23559796810150146,0.7328781555220092,0.3285617232322693,0.3253278136253357,0.43915456533432007,0.45584458112716675,4.823232889175415,2.891810417175293,,,,,,
8512568000.0,99.04,2.0899999141693115,6529777152.0,3443.797455860223,52.0,0.012091536074876785,868352.0,826.5307681560516,0.006768254097551107,0.073486328125,2.490678548812866,-0.022978320717811584,0.03443057835102081,-0.024906786158680916,0.0019284654408693314,0.0,0.0737057477235794,0.2491021305322647,0.7351764401911892,0.4575989842414856,0.38762691617012024,0.5313047170639038,0.4840599000453949,4.757538795471191,2.7716362476348877,,,,,,
8512568000.0,115.78,2.9200000762939453,6529777152.0,3476.423589656266,53.0,0.013374673202633858,884736.0,831.2436575889587,0.005727049894630909,0.06768798828125,2.4996135234832764,-0.02313728630542755,0.05691447854042053,-0.024996135383844376,0.0018588528037071228,0.0,0.1033213883638382,0.32770124077796936,0.6016033136149934,0.4287923574447632,0.36512139439582825,0.5321137309074402,0.5191826224327087,4.7128894329071045,2.7687807083129883,,,,,,
8512568000.0,100.47,2.5799999237060547,6529777152.0,3474.9699495741206,54.0,0.013100232928991318,901120.0,835.9585185050964,0.013305115513503551,0.13177490234375,2.5028698444366455,-0.015095666982233524,0.05839092656970024,-0.025028696283698082,0.009933032095432281,0.0,0.08821670711040497,0.33082306385040283,0.6029640294949963,0.4579368829727173,0.36466309428215027,0.5461535453796387,0.5250260233879089,4.714860916137695,2.7656285762786865,,,,,,
8512568000.0,100.77,2.450000047683716,6529777152.0,3554.0066628823174,55.0,0.01361498050391674,917504.0,840.5685267448425,0.012452402152121067,0.12945556640625,2.49821400642395,-0.017807001248002052,0.05581475794315338,-0.024982141330838203,0.007175138220191002,0.0,0.07522263377904892,0.33127376437187195,0.6529924805771188,0.5572463870048523,0.37926748394966125,0.6324690580368042,0.5623641610145569,4.610008239746094,2.767838716506958,,,,,,
8512568000.0,106.16,2.490000009536743,6529777152.0,3518.052643512632,56.0,0.011713274754583836,933888.0,845.2256486415863,0.008344003930687904,0.0989990234375,2.517770528793335,-0.02258502133190632,0.0392598882317543,-0.02517770417034626,0.0025926828384399414,0.0,0.08488716930150986,0.27603262662887573,0.6878422071067638,0.4554273784160614,0.36621400713920593,0.5403145551681519,0.4940527677536011,4.657121896743774,2.8096086978912354,,,,,,
8512568000.0,125.22,2.9200000762939453,6529777152.0,3555.120500775024,57.0,0.012336875312030315,950272.0,849.8342125415802,0.008433655835688114,0.101318359375,2.4589531421661377,-0.021700846031308174,0.03339245170354843,-0.024589531123638153,0.002888686954975128,0.0,0.08569782972335815,0.2586663067340851,0.7439011178790319,0.5008138418197632,0.4061252474784851,0.5865116119384766,0.511135458946228,4.6085638999938965,2.8345937728881836,,,,,,
8512568000.0,118.04,3.109999895095825,6529777152.0,3598.992543398383,58.0,0.013360720127820969,966656.0,854.3865976333618,0.006024152506142855,0.0712890625,2.494173526763916,-0.021388133987784386,0.04886448010802269,-0.024941736832261086,0.0035536009818315506,0.0,0.0742499977350235,0.29574182629585266,0.731528248511957,0.6343526840209961,0.4634672999382019,0.7086026668548584,0.5707729458808899,4.552385091781616,2.7734198570251465,,,,,,
8512568000.0,126.1,3.559999942779541,6529777152.0,3528.613889422196,59.0,0.01450294815003872,983040.0,859.029780626297,0.006711400579661131,0.0814208984375,2.439314603805542,-0.02248518168926239,0.06206676363945007,-0.024393143132328987,0.0019079595804214478,0.0,0.10595479607582092,0.33807769417762756,0.7023192827856671,0.6010534167289734,0.46031424403190613,0.7070081830024719,0.6196424961090088,4.643182992935181,2.7803733348846436,,,,,,
8512568000.0,124.14,3.369999885559082,6529777152.0,3468.322359195866,60.0,0.013942677527666092,999424.0,863.7536783218384,0.006763281300663948,0.07965087890625,2.5000972747802734,-0.020860236138105392,0.04773271083831787,-0.02500097081065178,0.004140733741223812,0.0,0.0758897066116333,0.29082539677619934,0.7317583840984034,0.7254408597946167,0.46528637409210205,0.80133056640625,0.5615252256393433,4.723897695541382,2.933103322982788,,,,,,
8512568000.0,131.37,4.389999866485596,6529777152.0,3608.657669214749,61.0,0.01628468930721283,1015808.0,868.2938706874847,0.01435036025941372,0.1695556640625,2.421464204788208,-0.019546475261449814,0.10744470357894897,-0.024214642122387886,0.004668158479034901,0.0,0.12683728337287903,0.4208810329437256,0.6850002784383296,0.7198382616043091,0.48508331179618835,0.8466755151748657,0.749901533126831,4.540192365646362,2.793064832687378,,,,,,
8512568000.0,118.7,3.0299999713897705,6529777152.0,3508.0702942595035,62.0,0.013428793288767338,1032192.0,872.9642446041107,0.005686755757778883,0.06396484375,2.4944987297058105,-0.02130037359893322,0.04981018230319023,-0.024944987148046494,0.0036446144804358482,0.0,0.09317383170127869,0.3020783066749573,0.7079270038756331,0.6133689284324646,0.429951548576355,0.7065427899360657,0.5589511394500732,4.670373916625977,2.7703027725219727,,,,,,
8512768000.0,128.9,3.8499999046325684,6529777152.0,3484.453385193536,63.0,0.014844832010567188,1048576.0,877.666273355484,0.009566262364387512,0.11907958984375,2.4189412593841553,-0.021496102213859558,0.05815131589770317,-0.024189412593841553,0.0026933113113045692,0.0,0.13812097907066345,0.31548917293548584,0.7689838248852456,0.6015576124191284,0.5089824795722961,0.7396786212921143,0.6563920378684998,4.702028751373291,2.7789437770843506,,,,,,
,,,,,,,,,,,,,,,,,,,,,,,,,,0.019200047478079796,0.13187219202518463,0.11553316563367844,0.019200047478079796,0.13187219202518463,0.11553316563367844
,,,,,,,,,,,,,,,,,,,,,,,,,,0.011791513301432133,0.1075928658246994,0.09933661669492722,0.011791513301432133,0.1075928658246994,0.09933661669492722
,,,,,,,,,,,,,,,,,,,,,,,,,,0.00835582334548235,0.09535127133131027,0.09248311072587967,0.00835582334548235,0.09535127133131027,0.09248311072587967
,,,,,,,,,,,,,,,,,,,,,,,,,,0.008053891360759735,0.0884627103805542,0.08725331723690033,0.008053891360759735,0.0884627103805542,0.08725331723690033
,,,,,,,,,,,,,,,,,,,,,,,,,,0.007604897953569889,0.08328426629304886,0.08359832316637039,0.007604897953569889,0.08328426629304886,0.08359832316637039
,,,,,,,,,,,,,,,,,,,,,,,,,,0.007842978462576866,0.080520398914814,0.0815141424536705,0.007842978462576866,0.080520398914814,0.0815141424536705
8513824000.0,149.91,4.559999942779541,6327188480.0,28.09190552714093,64.0,0.016751302406191826,1064960.0,1460.8947761058807,0.004835227038711309,0.05401611328125,2.4849870204925537,-0.022234542295336723,0.10771551728248596,-0.024849871173501015,0.002615325152873993,0.0,0.21523523330688477,0.4543968737125397,0.7688532012662547,0.5507733821868896,0.7333014607429504,0.7660086154937744,0.9451296329498291,583.2285027503967,2.793053388595581,,,,,,
8513824000.0,151.44,4.300000190734863,6529777152.0,3568.1704485217138,65.0,0.015248151496052742,1081344.0,1465.486485004425,0.004613033961504698,0.05322265625,2.4494524002075195,-0.024684231728315353,0.11985773593187332,-0.02449452318251133,-0.00018970295786857605,0.0,0.13165535032749176,0.49053755402565,0.778838491333427,0.8275741934776306,0.9349968433380127,0.9592295289039612,1.0430797338485718,4.5917088985443115,2.7828152179718018,,,,,,
8513824000.0,133.63,4.260000228881836,6529777152.0,3504.682435001722,66.0,0.015495004132390022,1097728.0,1470.161373615265,0.004673186223953962,0.0582275390625,2.4677863121032715,-0.023955073207616806,0.10740478336811066,-0.024677863344550133,0.000722784548997879,0.0,0.14202874898910522,0.44410616159439087,0.7945535049115113,0.9787576198577881,0.7772972583770752,1.120786428451538,0.9798000454902649,4.674888610839844,2.77817702293396,,,,,,
8513824000.0,172.08,5.650000095367432,6529777152.0,3468.8139658178893,67.0,0.017727050930261612,1114112.0,1474.8846018314362,0.004952823743224144,0.05926513671875,2.4336838722229004,-0.023945022374391556,0.17806017398834229,-0.024336837232112885,0.0003918129950761795,0.0,0.14686553180217743,0.5973563194274902,0.8236991814184249,1.2452194690704346,1.2773646116256714,1.392085075378418,1.422676920890808,4.723228216171265,2.766681671142578,,,,,,
8513824000.0,154.23,4.590000152587891,6529777152.0,3458.8741780140867,68.0,0.01484193280339241,1130496.0,1479.6214032173157,0.006842376664280891,0.08135986328125,2.4585163593292236,-0.023023521527647972,0.21440447866916656,-0.024585161358118057,0.0015616398304700851,0.0,0.04853808879852295,0.6344311237335205,0.7044778327067923,1.6699140071868896,1.1294304132461548,1.7184522151947021,1.1670498847961426,4.736801385879517,2.7755823135375977,,,,,,
8513824000.0,186.62,6.559999942779541,6529777152.0,3589.97815571513,69.0,0.01812770590186119,1146880.0,1484.1852192878723,0.0041951341554522514,0.045166015625,2.4302263259887695,-0.023798026144504547,0.225431889295578,-0.02430226281285286,0.0005042385309934616,0.0,0.09682144224643707,0.6374810338020325,0.7783311328669867,1.7422254085540771,1.1358355283737183,1.8390469551086426,1.3539882898330688,4.563816070556641,2.7517831325531006,,,,,,
8513824000.0,152.66,4.340000152587891,6529777152.0,3553.060136983093,70.0,0.014539648778736591,1163264.0,1488.7964556217194,0.005456626880913973,0.064697265625,2.4557242393493652,-0.02359485626220703,0.14882223308086395,-0.024557242169976234,0.0009623854421079159,0.0,0.044119082391262054,0.5159216523170471,0.8039264012630629,1.5612342357635498,0.9743743538856506,1.6053533554077148,1.16512930393219,4.611236333847046,2.7594268321990967,,,,,,
8513824000.0,153.26,4.360000133514404,6529777152.0,3530.9168361531642,71.0,0.016203079372644424,1179648.0,1493.4366102218628,0.0056840358301997185,0.06268310546875,2.426429510116577,-0.022216156125068665,0.1466294229030609,-0.024264296516776085,0.002048138529062271,0.0,0.0905555784702301,0.5346019268035889,0.8093857266982661,1.4798438549041748,1.134252667427063,1.570399284362793,1.2244831323623657,4.640154600143433,2.749854326248169,,,,,,
8513824000.0,181.4,6.230000019073486,6529777152.0,3518.2821117492113,72.0,0.017542239278554916,1196032.0,1498.0934283733368,0.005161017645150423,0.0557861328125,2.3895816802978516,-0.02150464616715908,0.22878310084342957,-0.023895815014839172,0.0023911716416478157,0.0,0.12561917304992676,0.6152536869049072,0.8129427302784359,1.623878002166748,1.2144526243209839,1.7494971752166748,1.4225478172302246,4.656818151473999,2.760366201400757,,,,,,
8513824000.0,206.12,7.460000038146973,6529777152.0,3466.4998343412085,73.0,0.017961058765649796,1212416.0,1502.8198096752167,0.00774390297010541,0.09271240234375,2.4175243377685547,-0.02184833399951458,0.2636246085166931,-0.024175243452191353,0.0023269099183380604,0.0,0.13742594420909882,0.6533768773078918,0.7767580736611626,1.837813377380371,1.2196974754333496,1.9752393960952759,1.382852554321289,4.726381301879883,2.754286527633667,,,,,,
8513824000.0,218.1,8.420000076293945,6529777152.0,3567.41636291657,74.0,0.019457601010799408,1228800.0,1507.4124891757965,0.005209207069128752,0.0621337890625,2.412555694580078,-0.023486215621232986,0.285682737827301,-0.024125559255480766,0.0006393399089574814,0.0,0.14699618518352509,0.7179927229881287,0.8281009813298943,2.235668182373047,1.554906964302063,2.382664442062378,1.73174250125885,4.592679500579834,2.7944209575653076,,,,,,
8513824000.0,214.93,8.220000267028809,6529777152.0,3464.7494471459086,75.0,0.01845511794090271,1245184.0,1512.141258239746,0.005090771242976189,0.06146240234375,2.4278576374053955,-0.022845469415187836,0.3185649514198303,-0.02427857741713524,0.0014331061393022537,0.0,0.1127469539642334,0.7496269941329956,0.7982577607555975,2.294084310531616,1.5066934823989868,2.4068315029144287,1.66896390914917,4.728769063949585,2.7615976333618164,,,,,,
8513824000.0,237.14,8.210000038146973,6529777152.0,3520.877148580149,76.0,0.01863276958465576,1261568.0,1516.7946441173553,0.009303690865635872,0.11663818359375,2.4147391319274902,-0.020349839702248573,0.27961909770965576,-0.024147389456629753,0.0037975506857037544,0.0,0.09980133175849915,0.7227941155433655,0.8031273809633979,2.457923412322998,1.5090574026107788,2.557724952697754,1.6290035247802734,4.653385877609253,2.7698915004730225,,,,,,
8513824000.0,243.37,8.859999656677246,6529777152.0,3558.283793105555,77.0,0.01904759183526039,1277952.0,1521.399111032486,0.004161313641816378,0.04644775390625,2.4349892139434814,-0.02329038642346859,0.3152882754802704,-0.024349890649318695,0.0010595032945275307,0.0,0.12158644944429398,0.8099560141563416,0.7526060506319425,2.6437323093414307,1.4461393356323242,2.7653188705444336,1.628421425819397,4.604466915130615,2.7613883018493652,,,,,,
8513824000.0,249.88,10.800000190734863,6529777152.0,3471.4727702007963,78.0,0.02064405381679535,1294336.0,1526.1187217235565,0.004553564824163914,0.047607421875,2.409079074859619,-0.02209438756108284,0.2529832720756531,-0.024090789258480072,0.0019964035600423813,0.0,0.13085085153579712,0.7135831713676453,0.8262576831653894,2.6211366653442383,1.505603313446045,2.7519874572753906,1.711952805519104,4.719610691070557,2.75691294670105,,,,,,
8513824000.0,240.22,9.050000190734863,6529777152.0,3524.4849317890034,79.0,0.020189348608255386,1310720.0,1530.767344236374,0.007383051328361034,0.0841064453125,2.4288926124572754,-0.01936090923845768,0.2987678647041321,-0.024288924410939217,0.004928015172481537,0.0,0.09897805750370026,0.7649723887443542,0.8031403857556287,2.588118553161621,1.5096944570541382,2.68709659576416,1.7241201400756836,4.648622512817383,2.7659847736358643,,,,,,
8513824000.0,221.94,8.4399995803833,6529777152.0,3548.212307805424,80.0,0.02115553617477417,1327104.0,1535.3848807811737,0.00548308901488781,0.06378173828125,2.410980701446533,-0.022286225110292435,0.306262731552124,-0.02410980686545372,0.0018235864117741585,0.0,0.0653509646654129,0.7570547461509705,0.8142518327322887,2.723361015319824,1.55765962600708,2.7887117862701416,1.756568193435669,4.617536544799805,2.7625067234039307,,,,,,
8513824000.0,225.74,7.880000114440918,6529777152.0,3548.612474521264,81.0,0.01600511558353901,1343488.0,1540.0018966197968,0.006412529852241278,0.0631103515625,2.4274559020996094,-0.021455984562635422,0.25411856174468994,-0.024274559691548347,0.0028185760602355003,0.0,0.07046794891357422,0.6744625568389893,0.7860060962927952,2.4547059535980225,1.3188279867172241,2.5251736640930176,1.4579987525939941,4.617015838623047,2.7679600715637207,,,,,,
8513824000.0,263.45,9.600000381469727,6529777152.0,3589.4645454886872,82.0,0.018185622990131378,1359872.0,1544.5663657188416,0.004278483334928751,0.04693603515625,2.421846866607666,-0.021176522597670555,0.2781383991241455,-0.024218469858169556,0.0030419472604990005,0.0,0.15000700950622559,0.7241370677947998,0.8212248784672824,2.774541139602661,1.5336865186691284,2.9245481491088867,1.7126445770263672,4.5644690990448,2.763349771499634,,,,,,
8513824000.0,282.17,11.800000190734863,6529777152.0,3599.6397365957187,83.0,0.023324649780988693,1376256.0,1549.117932319641,0.004277016967535019,0.04852294921875,2.4011001586914062,-0.023484669625759125,0.3129681646823883,-0.024011000990867615,0.0005263295024633408,0.0,0.17699216306209564,0.767625093460083,0.8278807411728172,2.976318120956421,1.6419309377670288,3.1533102989196777,1.8502670526504517,4.5515666007995605,2.782235622406006,,,,,,
8513824000.0,275.37,12.210000038146973,6529777152.0,3541.8899835856478,84.0,0.023045074194669724,1392640.0,1553.743711233139,0.003468333277851343,0.03985595703125,2.4005885124206543,-0.023347405716776848,0.26620930433273315,-0.024005884304642677,0.0006584785878658295,0.0,0.15521028637886047,0.7125728726387024,0.8521673624288093,3.137819528579712,1.6599684953689575,3.29302978515625,1.8532928228378296,4.625778913497925,2.8137664794921875,,,,,,
8513824000.0,278.9,12.949999809265137,6529777152.0,3533.9568546454275,85.0,0.023090993985533714,1409024.0,1558.3798742294312,0.0029425835236907005,0.02984619140625,2.4131524562835693,-0.022644612938165665,0.315945565700531,-0.024131525307893753,0.001486911904066801,0.0,0.1311284750699997,0.779681921005249,0.8348897828239465,3.2682108879089355,1.69391930103302,3.399339199066162,1.918803095817566,4.636162996292114,2.7629730701446533,,,,,,
8513824000.0,279.8,13.09000015258789,6529777152.0,3481.6360153872056,86.0,0.021451596170663834,1425408.0,1563.0857079029083,0.007258167490363121,0.083251953125,2.430530309677124,-0.020539801567792892,0.35352885723114014,-0.024305302649736404,0.003765502944588661,0.0,0.17517754435539246,0.8263155221939087,0.8202950459876929,3.409695625305176,1.7769855260849,3.5848731994628906,1.949242353439331,4.705833673477173,2.8018946647644043,,,,,,
8513824000.0,281.26,13.0,6529777152.0,3582.90500917605,87.0,0.024452243000268936,1441792.0,1567.6585335731506,0.006416731514036655,0.07891845703125,2.3888728618621826,-0.021819546818733215,0.30865561962127686,-0.02388872765004635,0.0020691808313131332,0.0,0.13964548707008362,0.7766311168670654,0.838546339495317,3.4604880809783936,1.7168817520141602,3.6001336574554443,1.9328174591064453,4.57282567024231,2.7651867866516113,,,,,,
8513824000.0,286.0,13.239999771118164,6529777152.0,3523.959891164603,88.0,0.02285240963101387,1458176.0,1572.3078486919403,0.002854613121598959,0.0284423828125,2.4217536449432373,-0.022758441045880318,0.34262746572494507,-0.024217532947659492,0.0014590956270694733,0.0,0.15527577698230743,0.7713355422019958,0.8356427323615435,3.620811700820923,1.6965737342834473,3.7760872840881348,1.9026058912277222,4.649315118789673,2.7741100788116455,,,,,,
8513824000.0,307.61,14.369999885559082,6529777152.0,3504.152734901892,89.0,0.024564094841480255,1474560.0,1576.9834439754486,0.003716845531016588,0.0313720703125,2.3962769508361816,-0.0220234002918005,0.40320852398872375,-0.02396276965737343,0.0019393637776374817,0.0,0.12873956561088562,0.848959743976593,0.8034300811755832,3.8726887702941895,1.7791234254837036,4.001428604125977,1.914823293685913,4.675595283508301,2.775475263595581,,,,,,
8513824000.0,300.8,13.819999694824219,6529777152.0,3576.825654238248,90.0,0.023199375718832016,1490944.0,1581.564041852951,0.004139719530940056,0.0447998046875,2.388211250305176,-0.022630885243415833,0.3009617030620575,-0.02388211339712143,0.0012512244284152985,0.0,0.1403394341468811,0.7731320858001709,0.8507815377055421,3.8793749809265137,1.777208685874939,4.01971435546875,2.001439094543457,4.580597877502441,2.78472900390625,,,,,,
8513824000.0,302.07,14.850000381469727,6529777152.0,3441.608265772309,91.0,0.024265967309474945,1507328.0,1586.3246068954468,0.004823324736207724,0.05108642578125,2.3595757484436035,-0.02211930975317955,0.34866562485694885,-0.02359575778245926,0.0014764508232474327,0.0,0.207219660282135,0.8061069250106812,0.8135475685530711,3.855631113052368,1.7270349264144897,4.0628509521484375,1.8668466806411743,4.7605650424957275,2.780519962310791,,,,,,
8513824000.0,325.96,16.889999389648438,6529777152.0,3428.899160606878,92.0,0.028920229524374008,1523712.0,1591.1028168201447,0.006630988791584969,0.0814208984375,2.392502784729004,-0.021007884293794632,0.32192355394363403,-0.02392502687871456,0.0029171400237828493,0.0,0.19554977118968964,0.7871385812759399,0.8310534440747519,3.996983528137207,1.7741968631744385,4.192533016204834,1.915034294128418,4.778209924697876,2.7803311347961426,,,,,,
8513824000.0,339.7,17.459999084472656,6529777152.0,3510.4766834529214,93.0,0.02534850314259529,1540096.0,1595.7699892520905,0.006467063445597887,0.06292724609375,2.418759822845459,-0.01988387107849121,0.3325228691101074,-0.024187596514821053,0.004303723573684692,0.0,0.17101633548736572,0.8027662038803101,0.8036355166234884,4.191522121429443,1.6001992225646973,4.3625383377075195,1.811579942703247,4.667172431945801,2.768026351928711,,,,,,
8513824000.0,341.84,16.459999084472656,6529777152.0,3425.0931720656404,94.0,0.023240558803081512,1556480.0,1600.553508758545,0.006041558459401131,0.06988525390625,2.4019932746887207,-0.02048344723880291,0.3546058237552643,-0.024019932374358177,0.003536483272910118,0.0,0.10307431221008301,0.8153562545776367,0.7755163753641579,4.393621444702148,1.524322748184204,4.4966959953308105,1.7208975553512573,4.783519506454468,2.811109781265259,,,,,,
8513980000.0,322.75,15.510000228881836,6529777152.0,3573.651810399687,95.0,0.0239664725959301,1572864.0,1605.1381747722626,0.006217204499989748,0.065673828125,2.3721582889556885,-0.02220212295651436,0.3856427073478699,-0.02372158132493496,0.0015194602310657501,0.0,0.14244623482227325,0.8406063318252563,0.8166618169473548,4.641403675079346,1.7722705602645874,4.783849716186523,1.963206171989441,4.584666013717651,2.7752227783203125,,,,,,
,,,,,,,,,,,,,,,,,,,,,,,,,,0.0665944293141365,0.9973090291023254,0.8424529433250427,0.0665944293141365,0.9973090291023254,0.8424529433250427
,,,,,,,,,,,,,,,,,,,,,,,,,,0.03208807483315468,0.7816874980926514,0.7444306015968323,0.03208807483315468,0.7816874980926514,0.7444306015968323
,,,,,,,,,,,,,,,,,,,,,,,,,,0.026191292330622673,0.7258530855178833,0.6985776424407959,0.026191292330622673,0.7258530855178833,0.6985776424407959
,,,,,,,,,,,,,,,,,,,,,,,,,,0.024961890652775764,0.7051815986633301,0.6804711222648621,0.024961890652775764,0.7051815986633301,0.6804711222648621
,,,,,,,,,,,,,,,,,,,,,,,,,,0.022074654698371887,0.666851282119751,0.6481059789657593,0.022074654698371887,0.666851282119751,0.6481059789657593
,,,,,,,,,,,,,,,,,,,,,,,,,,0.022100022062659264,0.6320141553878784,0.6207987070083618,0.022100022062659264,0.6320141553878784,0.6207987070083618
8513980000.0,320.62,15.880000114440918,6327188480.0,28.14995750569343,96.0,0.02540619671344757,1589248.0,2187.1639201641083,0.0042440337128937244,0.05072021484375,2.41703462600708,-0.022143445909023285,0.2665950059890747,-0.024170346558094025,0.0020269006490707397,0.0,0.23820392787456512,0.7187105417251587,0.8486393626704661,2.6788852214813232,1.6310200691223145,2.9170892238616943,1.84734308719635,582.0257453918457,2.8729777336120605,,,,,,
8513980000.0,343.44,17.309999465942383,6529777152.0,3613.319534189509,97.0,0.02829875238239765,1605632.0,2191.6982548236847,0.004919291008263826,0.05340576171875,2.4089410305023193,-0.020820658653974533,0.35036972165107727,-0.024089409038424492,0.003268750384449959,0.0,0.2896117866039276,0.8184949159622192,0.8248623099301823,3.2259695529937744,1.7453508377075195,3.5155816078186035,1.9558080434799194,4.534334659576416,2.766427993774414,,,,,,
8513980000.0,327.94,16.770000457763672,6529777152.0,3412.3370896306915,98.0,0.024138502776622772,1622016.0,2196.499656200409,0.004278035834431648,0.04534912109375,2.383681297302246,-0.02303854376077652,0.3201080560684204,-0.023836813867092133,0.0007982701063156128,0.0,0.20327726006507874,0.7904132008552551,0.8459668844916101,3.4718167781829834,1.8325395584106445,3.6750941276550293,2.0139427185058594,4.801401376724243,2.8780806064605713,,,,,,
8513980000.0,324.93,15.390000343322754,6529777152.0,3492.084653004476,99.0,0.02236367017030716,1638400.0,2201.19140958786,0.0028204736299812794,0.028076171875,2.3691039085388184,-0.022739160805940628,0.4542568325996399,-0.02369103766977787,0.0009518754668533802,0.0,0.2005387544631958,0.9448114037513733,0.7832984167648911,3.8152101039886475,1.9139944314956665,4.015748977661133,2.029616594314575,4.691753387451172,2.7573161125183105,,,,,,
8513980000.0,336.81,16.559999465942383,6529777152.0,3587.1115819955903,100.0,0.028399944305419922,1654784.0,2205.7588727474213,0.0045651099644601345,0.0484619140625,2.3577747344970703,-0.02226577326655388,0.3216562271118164,-0.023577747866511345,0.0013119739014655352,0.0,0.20602275431156158,0.7813206315040588,0.8384750629347723,4.026679992675781,1.7498148679733276,4.23270320892334,1.9440593719482422,4.567463159561157,2.745893955230713,,,,,,
8513980000.0,325.01,16.84000015258789,6529777152.0,3544.603163180082,101.0,0.023266036063432693,1671168.0,2210.381110906601,0.003942003473639488,0.045166015625,2.3436660766601562,-0.022173475474119186,0.30365994572639465,-0.023436661809682846,0.0012631863355636597,0.0,0.1398267149925232,0.7744908332824707,0.8281772498272691,4.17750883102417,1.6795178651809692,4.317335605621338,1.8684263229370117,4.6222381591796875,2.7572317123413086,,,,,,
8513980000.0,318.58,14.979999542236328,6529777152.0,3498.5431824929774,102.0,0.02495867758989334,1687552.0,2215.0642030239105,0.004301469773054123,0.04443359375,2.344982147216797,-0.022438589483499527,0.35116419196128845,-0.023449821397662163,0.0010112300515174866,0.0,0.12151389569044113,0.8339771032333374,0.8341098887480438,4.294905662536621,1.8900463581085205,4.416419982910156,2.0475945472717285,4.68309211730957,2.7592365741729736,,,,,,
8513980000.0,325.44,15.9399995803833,6529777152.0,3478.1028796451337,103.0,0.024617435410618782,1703936.0,2219.7748169898987,0.005052259657531977,0.05767822265625,2.3505537509918213,-0.02045004442334175,0.322410523891449,-0.02350553683936596,0.0030554896220564842,0.0,0.20160245895385742,0.7951911091804504,0.8332933667560705,4.515061378479004,1.8313300609588623,4.716663360595703,1.9475786685943604,4.710613965988159,2.763432264328003,,,,,,
8513980000.0,342.99,18.549999237060547,6529777152.0,3601.3820742253015,104.0,0.030213866382837296,1720320.0,2224.3241815567017,0.0055433716624975204,0.06573486328125,2.3540382385253906,-0.022223183885216713,0.3497051000595093,-0.023540379479527473,0.0013171958271414042,0.0,0.16960133612155914,0.8177472352981567,0.8288904603690779,4.704523086547852,1.7971199750900269,4.874124526977539,1.9768877029418945,4.5493645668029785,2.760427474975586,,,,,,
8513980000.0,344.46,17.290000915527344,6529777152.0,3587.5213205687182,105.0,0.02200779877603054,1736704.0,2228.8911230564117,0.0034211263991892338,0.03582763671875,2.3760156631469727,-0.023302476853132248,0.3587915599346161,-0.023760154843330383,0.00045768171548843384,0.0,0.14380255341529846,0.8309084177017212,0.7898671864385183,5.010675430297852,1.633337140083313,5.154478073120117,1.8126169443130493,4.566941499710083,2.7466423511505127,,,,,,
8513980000.0,363.66,18.459999084472656,6529777152.0,3662.3584988095645,106.0,0.029639597982168198,1753088.0,2233.3647429943085,0.002611782867461443,0.0252685546875,2.353695869445801,-0.022448895499110222,0.3563394546508789,-0.023536957800388336,0.0010880641639232635,0.0,0.14787320792675018,0.8342599272727966,0.8190260131639897,5.247463703155518,1.8737491369247437,5.395337104797363,1.9610713720321655,4.4736199378967285,2.7541146278381348,,,,,,
8513980000.0,370.08,20.690000534057617,6529777152.0,3641.947259729153,107.0,0.027616921812295914,1769472.0,2237.863435268402,0.004504907876253128,0.0482177734375,2.3574087619781494,-0.022525247186422348,0.359724223613739,-0.023574084043502808,0.001048835925757885,0.0,0.15194247663021088,0.839180052280426,0.809545995503024,5.187159538269043,1.7785735130310059,5.339101791381836,1.9229158163070679,4.498692274093628,2.759526491165161,,,,,,
8513980000.0,354.11,19.739999771118164,6529777152.0,3521.4846397122774,108.0,0.024487171322107315,1785856.0,2242.5160183906555,0.003317891387268901,0.031005859375,2.3809120655059814,-0.02251141518354416,0.29526346921920776,-0.023809121921658516,0.0012977051082998514,0.0,0.11557246744632721,0.754737377166748,0.807670697882534,5.327556610107422,1.5868507623672485,5.443129539489746,1.720969557762146,4.652583122253418,2.748537063598633,,,,,,
8513980000.0,346.68,18.190000534057617,6529777152.0,3533.44588493106,109.0,0.0273701474070549,1802240.0,2247.152851819992,0.002338370308279991,0.02313232421875,2.3796658515930176,-0.023032458499073982,0.3439503610134125,-0.023796657100319862,0.0007642023265361786,0.0,0.12443118542432785,0.810350239276886,0.8060198237374985,5.46840238571167,1.6718693971633911,5.592833518981934,1.8398984670639038,4.636833429336548,2.7637879848480225,,,,,,
8513980000.0,349.86,18.139999389648438,6529777152.0,3455.7968056467103,110.0,0.02641759254038334,1818624.0,2251.893871307373,0.0061805108562111855,0.0714111328125,2.3539934158325195,-0.022237658500671387,0.3377373516559601,-0.023539934307336807,0.0013022758066654205,0.0,0.1040673702955246,0.8081936836242676,0.7705640360062657,5.349841117858887,1.5009400844573975,5.4539079666137695,1.687269926071167,4.7410194873809814,2.7499310970306396,,,,,,
8513980000.0,351.63,18.68000030517578,6529777152.0,3450.507027348489,111.0,0.028903527185320854,1835008.0,2256.642158985138,0.004442306235432625,0.05120849609375,2.350341558456421,-0.02377711981534958,0.3187241554260254,-0.023503415286540985,-0.00027370546013116837,0.0,0.1019400805234909,0.794160008430481,0.7838043611425835,5.540200233459473,1.595078468322754,5.6421403884887695,1.707987904548645,4.748287677764893,2.7936851978302,,,,,,
8513980000.0,363.62,19.25,6529777152.0,3605.3713062828742,112.0,0.026087597012519836,1851392.0,2261.1864898204803,0.006040175911039114,0.07025146484375,2.331366777420044,-0.021574633195996284,0.35118749737739563,-0.023313667625188828,0.0017390325665473938,0.0,0.12163721024990082,0.823551595211029,0.7695289900247635,5.525033473968506,1.581402063369751,5.646670341491699,1.7154675722122192,4.544330835342407,2.7608413696289062,,,,,,
8513980000.0,368.33,19.469999313354492,6529777152.0,3557.1401687987673,113.0,0.024680539965629578,1867776.0,2265.7924370765686,0.010544661432504654,0.12286376953125,2.35402774810791,-0.01862773299217224,0.2907680571079254,-0.023540277034044266,0.004912548698484898,0.0,0.13196493685245514,0.7327472567558289,0.7972829852170695,5.745332717895508,1.4294220209121704,5.877297401428223,1.6274546384811401,4.605947256088257,2.76725172996521,,,,,,
8513980000.0,358.57,19.299999237060547,6529777152.0,3488.1911868188818,114.0,0.0304984450340271,1884160.0,2270.4894273281097,0.015395347960293293,0.172607421875,2.3170409202575684,-0.015559457242488861,0.3600428104400635,-0.023170411586761475,0.007610943168401718,0.0,0.0735764279961586,0.807031512260437,0.80135014524645,5.9108452796936035,1.6139847040176392,5.984421730041504,1.8107001781463623,4.696990251541138,2.8759970664978027,,,,,,
8513980000.0,353.36,18.139999389648438,6529777152.0,3471.8400273869233,115.0,0.021079611033201218,1900544.0,2275.2085387706757,0.00961966160684824,0.11724853515625,2.3331923484802246,-0.021227261051535606,0.33464834094047546,-0.02333192154765129,0.002104664221405983,0.0,0.10537406802177429,0.7932113409042358,0.7978697435776139,5.572705268859863,1.5824590921401978,5.678078651428223,1.7643018960952759,4.719111442565918,2.7896275520324707,,,,,,
8513980000.0,358.55,17.729999542236328,6529777152.0,3574.936442483532,116.0,0.02713710442185402,1916928.0,2279.7915573120117,0.003573679830878973,0.03570556640625,2.334113121032715,-0.022760720923542976,0.2926212549209595,-0.02334113046526909,0.0005804067477583885,0.0,0.07222103327512741,0.7615197896957397,0.8066368360423581,5.568085670471191,1.5843733549118042,5.64030647277832,1.7317860126495361,4.58301854133606,2.7704029083251953,,,,,,
8513980000.0,341.68,16.299999237060547,6529777152.0,3486.6169479692535,117.0,0.025322042405605316,1933312.0,2284.490668296814,0.0031634194310754538,0.0264892578125,2.339311361312866,-0.02203015610575676,0.43821245431900024,-0.023393111303448677,0.0013629551976919174,0.0,-0.009873062372207642,0.9416134357452393,0.7389037454883925,5.894712924957275,1.5869113206863403,5.88484001159668,1.8427760601043701,4.699110984802246,2.834397315979004,,,,,,
8513980000.0,334.57,15.8100004196167,6529777152.0,3492.3402077531355,118.0,0.021748915314674377,1949696.0,2289.1820783615112,0.003448822069913149,0.0382080078125,2.3351082801818848,-0.022371705621480942,0.29498377442359924,-0.02335108071565628,0.0009793788194656372,0.0,0.11352240294218063,0.7559131979942322,0.7927538245328012,5.653876304626465,1.5496340990066528,5.767398834228516,1.6604619026184082,4.691410064697266,2.813446283340454,,,,,,
8513980000.0,359.49,19.56999969482422,6529777152.0,3605.7517391640617,119.0,0.03151562809944153,1966080.0,2293.725929737091,0.004926460329443216,0.04913330078125,2.3401894569396973,-0.02082287147641182,0.26589590311050415,-0.023401891812682152,0.002579023130238056,0.0,0.16020172834396362,0.7283384799957275,0.8087852562953805,5.619448184967041,1.4683895111083984,5.77964973449707,1.6656068563461304,4.543851375579834,2.7863869667053223,,,,,,
8513980000.0,373.83,21.450000762939453,6529777152.0,3623.9369362670573,120.0,0.03031652420759201,1982464.0,2298.24697971344,0.004966614302247763,0.0550537109375,2.3241488933563232,-0.02092612534761429,0.2591893970966339,-0.02324148826301098,0.0023153643123805523,0.0,0.19027036428451538,0.6863084435462952,0.8379246934124799,5.89224910736084,1.5283586978912354,6.08251953125,1.704750418663025,4.521049976348877,2.7745680809020996,,,,,,
8513980000.0,368.18,21.260000228881836,6529777152.0,3587.995970261385,121.0,0.02688979171216488,1998848.0,2302.8133170604706,0.006146191619336605,0.06396484375,2.3203322887420654,-0.0197574645280838,0.2789624333381653,-0.023203324526548386,0.0034458599984645844,0.0,0.12349583208560944,0.6942516565322876,0.8238107142442685,5.685868740081787,1.5170025825500488,5.809364318847656,1.6539679765701294,4.56633734703064,2.769912004470825,,,,,,
8513980000.0,384.78,21.40999984741211,6529777152.0,3449.134873192384,122.0,0.027072086930274963,2015232.0,2307.5634937286377,0.006266659591346979,0.0755615234375,2.325779438018799,-0.02023460529744625,0.3090742826461792,-0.023257793858647346,0.0030231885612010956,0.0,0.11498647928237915,0.7492526769638062,0.7761939574016089,6.02814245223999,1.453437328338623,6.143129348754883,1.5837723016738892,4.750176668167114,2.8990392684936523,,,,,,
8513980000.0,366.99,19.59000015258789,6529777152.0,3455.9181130261795,123.0,0.026716820895671844,2031616.0,2312.3043467998505,0.005578225012868643,0.05645751953125,2.323666572570801,-0.019648509100079536,0.31571707129478455,-0.02323666587471962,0.003588154911994934,0.0,0.08637736737728119,0.7764387130737305,0.8122869609973961,5.922244071960449,1.6677875518798828,6.0086212158203125,1.792090654373169,4.7408530712127686,2.9062070846557617,,,,,,
8513980000.0,365.03,19.600000381469727,6529777152.0,3615.421295856407,124.0,0.029613422229886055,2048000.0,2316.8360455036163,0.0038418415933847427,0.04180908203125,2.323441505432129,-0.021307865157723427,0.29876112937927246,-0.0232344139367342,0.0019265487790107727,0.0,0.12328055500984192,0.7670713067054749,0.7749334844632019,6.294853687286377,1.4798625707626343,6.4181342124938965,1.616888165473938,4.531698703765869,2.750067710876465,,,,,,
8513980000.0,375.28,21.059999465942383,6529777152.0,3443.7311856688375,125.0,0.02811657264828682,2064384.0,2321.593675851822,0.00395264383405447,0.04608154296875,2.340611696243286,-0.02270536497235298,0.2651563286781311,-0.023406116291880608,0.000700751319527626,0.0,0.10989130288362503,0.6974563598632812,0.8061561411491117,6.220461845397949,1.425373911857605,6.330353736877441,1.5841318368911743,4.757630348205566,2.7575855255126953,,,,,,
8513980000.0,379.24,20.969999313354492,6529777152.0,3477.7943134188617,126.0,0.02795105054974556,2080768.0,2326.304707765579,0.0031659305095672607,0.03436279296875,2.345515251159668,-0.02209511026740074,0.3113973140716553,-0.023455148562788963,0.001360040856525302,0.0,0.09136594831943512,0.7704611420631409,0.7713336282355081,6.039002895355225,1.485422968864441,6.130368232727051,1.6111987829208374,4.711031913757324,2.7773752212524414,,,,,,
8514016000.0,373.23,21.280000686645508,6529777152.0,3533.104351741108,127.0,0.029196064919233322,2097152.0,2330.9419894218445,0.006633773446083069,0.07830810546875,2.304729700088501,-0.022315699607133865,0.2401238977909088,-0.023047294467687607,0.0007315929979085922,0.0,0.1713671088218689,0.6771814823150635,0.810822265916233,6.092660903930664,1.3838311433792114,6.264028072357178,1.5569320917129517,4.637281656265259,2.7875242233276367,,,,,,
,,,,,,,,,,,,,,,,,,,,,,,,,,0.028938503935933113,0.8919854760169983,0.7653282880783081,0.028938503935933113,0.8919854760169983,0.7653282880783081
,,,,,,,,,,,,,,,,,,,,,,,,,,0.020113689824938774,0.7547749876976013,0.6922817826271057,0.020113689824938774,0.7547749876976013,0.6922817826271057
,,,,,,,,,,,,,,,,,,,,,,,,,,0.018061397597193718,0.6828329563140869,0.6302112340927124,0.018061397597193718,0.6828329563140869,0.6302112340927124
,,,,,,,,,,,,,,,,,,,,,,,,,,0.01797245815396309,0.6466484665870667,0.6016067862510681,0.01797245815396309,0.6466484665870667,0.6016067862510681
,,,,,,,,,,,,,,,,,,,,,,,,,,0.017305565997958183,0.6091095209121704,0.5783441066741943,0.017305565997958183,0.6091095209121704,0.5783441066741943
,,,,,,,,,,,,,,,,,,,,,,,,,,0.01805027201771736,0.5827969908714294,0.5595669746398926,0.01805027201771736,0.5827969908714294,0.5595669746398926
8514280000.0,370.8,21.3700008392334,6327188480.0,28.229736566369954,128.0,0.02929653786122799,2113536.0,2911.3228924274445,0.004112252965569496,0.041259765625,2.338468551635742,-0.022358618676662445,0.2785329222679138,-0.023384688422083855,0.0010260660201311111,0.0,0.14091402292251587,0.7350271344184875,0.8507855247877039,5.434398651123047,1.7890957593917847,5.575312614440918,1.9028202295303345,580.3809030056,2.813760995864868,,,,,,
8514280000.0,392.1,23.209999084472656,6529777152.0,3477.5315560306103,129.0,0.033113472163677216,2129920.0,2916.0342803001404,0.006306005641818047,0.0753173828125,2.3084187507629395,-0.020446129143238068,0.281518816947937,-0.023084186017513275,0.002638060599565506,0.0,0.2033354640007019,0.7400139570236206,0.839254252333961,5.736774444580078,1.7296034097671509,5.940110206604004,1.8457387685775757,4.711387872695923,2.7949986457824707,,,,,,
8514280000.0,382.46,22.100000381469727,6529777152.0,3459.0390551234686,130.0,0.026408173143863678,2146304.0,2920.7708559036255,0.004933093208819628,0.0538330078125,2.3315579891204834,-0.021951187402009964,0.3010401725769043,-0.023315582424402237,0.0013643904821947217,0.0,0.15365448594093323,0.7727561593055725,0.8307329296927815,5.923582077026367,1.8060119152069092,6.077236175537109,1.8782626390457153,4.736575603485107,2.8298025131225586,,,,,,
8514280000.0,371.72,20.8700008392334,6529777152.0,3569.393667280217,131.0,0.028806859627366066,2162688.0,2925.3609912395477,0.0052312398329377174,0.056884765625,2.3117685317993164,-0.020642656832933426,0.31210458278656006,-0.023117683827877045,0.0024750246666371822,0.0,0.12034113705158234,0.7905821204185486,0.8113865697053835,6.184930801391602,1.7329870462417603,6.305272579193115,1.8203753232955933,4.590135335922241,2.7507736682891846,,,,,,
8514280000.0,372.69,21.719999313354492,6529777152.0,3644.1827611873337,132.0,0.03059304505586624,2179072.0,2929.8569238185883,0.007493285462260246,0.08685302734375,2.3024706840515137,-0.01777348853647709,0.24465718865394592,-0.023024708032608032,0.005251223221421242,0.0,0.1824144423007965,0.6803864240646362,0.8529471737515121,6.491548538208008,1.6683604717254639,6.6739630699157715,1.7742657661437988,4.495932579040527,2.7570173740386963,,,,,,
8514280000.0,387.1,23.780000686645508,6529777152.0,3515.2211583550134,133.0,0.03154861554503441,2195456.0,2934.5177969932556,0.005323015619069338,0.06427001953125,2.2728018760681152,-0.02204982005059719,0.2808307409286499,-0.02272801846265793,0.0006782019045203924,0.0,0.15089735388755798,0.7343348860740662,0.7968683296159307,6.739469051361084,1.6093508005142212,6.890366554260254,1.6293165683746338,4.660873174667358,2.7501943111419678,,,,,,
8514280000.0,395.83,23.989999771118164,6529777152.0,3512.6432471628495,134.0,0.028537586331367493,2211840.0,2939.1820907592773,0.003460235893726349,0.03424072265625,2.2771854400634766,-0.021381907165050507,0.2927112281322479,-0.02277185581624508,0.0013899467885494232,0.0,0.09365826845169067,0.75164794921875,0.7893998063013287,6.573056221008301,1.541637659072876,6.666714668273926,1.637892723083496,4.6642937660217285,2.746487855911255,,,,,,
8514280000.0,390.89,22.809999465942383,6529777152.0,3597.5549599022956,135.0,0.03009599633514881,2228224.0,2943.7362949848175,0.0034048492088913918,0.03167724609375,2.266594886779785,-0.02130231074988842,0.2242630422115326,-0.022665949538350105,0.0013636359944939613,0.0,0.12268666923046112,0.650113582611084,0.8137190078285352,6.843447685241699,1.4428813457489014,6.966134071350098,1.5062764883041382,4.554204225540161,2.7408204078674316,,,,,,
8514280000.0,377.12,21.059999465942383,6529777152.0,3552.7315158843257,136.0,0.026174014434218407,2244608.0,2948.3479578495026,0.004067947156727314,0.04278564453125,2.287569046020508,-0.021284431219100952,0.31994324922561646,-0.022875690832734108,0.0015912586823105812,0.0,0.02193674072623253,0.797457218170166,0.7571551887903143,6.878069877624512,1.4464027881622314,6.900007247924805,1.6182410717010498,4.611662864685059,2.7527129650115967,,,,,,
8514280000.0,368.01,20.15999984741211,6529777152.0,3578.795699829662,137.0,0.029883503913879395,2260992.0,2952.9260342121124,0.004023139365017414,0.0433349609375,2.288961887359619,-0.020881744101643562,0.2953825891017914,-0.02288961596786976,0.0020078718662261963,0.0,0.07192268967628479,0.7607042789459229,0.7664386694549897,6.959192276000977,1.4419676065444946,7.031115531921387,1.5740402936935425,4.578076362609863,2.7427561283111572,,,,,,
8514280000.0,375.46,20.81999969482422,6529777152.0,3593.6119367393976,138.0,0.027671707794070244,2277376.0,2957.485235452652,0.004130196757614613,0.04547119140625,2.248562812805176,-0.020425977185368538,0.28568893671035767,-0.022485626861453056,0.0020596515387296677,0.0,0.08013837039470673,0.7480292916297913,0.764683204090868,7.096436500549316,1.3971266746520996,7.17657470703125,1.5420259237289429,4.559201240539551,2.7501184940338135,,,,,,
8514280000.0,382.44,22.0,6529777152.0,3615.50061601297,139.0,0.02820631116628647,2293760.0,2962.0168347358704,0.003209119662642479,0.026611328125,2.2670366764068604,-0.021547088399529457,0.2600451707839966,-0.02267036773264408,0.0011232821270823479,0.0,0.04498475044965744,0.6966379880905151,0.8126356153576004,7.013232707977295,1.4697498083114624,7.058218002319336,1.6093993186950684,4.531599283218384,2.741933584213257,,,,,,
8514280000.0,385.83,22.459999084472656,6529777152.0,3519.044218673803,140.0,0.03173565864562988,2310144.0,2966.6726443767548,0.0026431637816131115,0.02490234375,2.2791621685028076,-0.02246561273932457,0.28721868991851807,-0.02279162034392357,0.00032601039856672287,0.0,0.091619573533535,0.7578471302986145,0.7984317471458837,7.133743762969971,1.5724846124649048,7.225363254547119,1.6879918575286865,4.655809640884399,2.750563383102417,,,,,,
8514280000.0,393.75,22.790000915527344,6529777152.0,3550.8170241064176,141.0,0.029303809627890587,2326528.0,2971.2867937088013,0.0038791336119174957,0.03985595703125,2.2680017948150635,-0.021737681701779366,0.264943927526474,-0.022680016234517097,0.0009423345327377319,0.0,0.07943085581064224,0.7067064046859741,0.7883619328777957,7.285970687866211,1.4590001106262207,7.365401268005371,1.536179780960083,4.614149332046509,2.7640793323516846,,,,,,
8514280000.0,395.15,22.600000381469727,6529777152.0,3505.795970507828,142.0,0.029474318027496338,2342912.0,2975.9601974487305,0.00351696670986712,0.0401611328125,2.279606580734253,-0.023028729483485222,0.2025519609451294,-0.022796066477894783,-0.00023266486823558807,0.0,0.09196875244379044,0.6256187558174133,0.8233367392388544,7.285656929016113,1.4149388074874878,7.377625465393066,1.4884575605392456,4.673403739929199,2.7437329292297363,,,,,,
8514280000.0,402.48,23.020000457763672,6529777152.0,3442.5494505054103,143.0,0.028347086161375046,2359296.0,2980.719460964203,0.0036223118659108877,0.04327392578125,2.2735347747802734,-0.02147631347179413,0.23109929263591766,-0.022735347971320152,0.0012590328697115183,0.0,0.08823657035827637,0.668997585773468,0.8019848437474599,7.2970123291015625,1.4179259538650513,7.385249137878418,1.5034035444259644,4.759263515472412,2.7575061321258545,,,,,,
8514280000.0,400.28,23.290000915527344,6529777152.0,3598.870219310704,144.0,0.027908489108085632,2375680.0,2985.2720007896423,0.0047722188755869865,0.05291748046875,2.248847723007202,-0.01988641917705536,0.2564021944999695,-0.02248847484588623,0.002602057531476021,0.0,0.037592291831970215,0.7105321288108826,0.7636494999530737,7.256583213806152,1.3755782842636108,7.294175148010254,1.4615213871002197,4.552539825439453,2.7544667720794678,,,,,,
8514280000.0,402.59,23.959999084472656,6529777152.0,3488.6190164994355,145.0,0.03231652453541756,2392064.0,2989.9684150218964,0.004795435816049576,0.05859375,2.243237018585205,-0.021675530821084976,0.18931543827056885,-0.022432371973991394,0.0007568411529064178,0.0,0.09981441497802734,0.6117658615112305,0.7730212672334031,7.398183345794678,1.1788663864135742,7.497997283935547,1.2840813398361206,4.696414232254028,2.7529053688049316,,,,,,
8514280000.0,394.08,22.969999313354492,6529777152.0,3609.4423739890844,146.0,0.029324911534786224,2408448.0,2994.5076203346252,0.00555430119857192,0.06988525390625,2.2560839653015137,-0.02136361226439476,0.23201416432857513,-0.022560840472579002,0.001197226345539093,0.0,0.0712321549654007,0.6691315770149231,0.7684865158612219,7.421854496002197,1.2216317653656006,7.493086814880371,1.3906686305999756,4.539205312728882,2.7457945346832275,,,,,,
8514280000.0,404.29,23.809999465942383,6529777152.0,3593.431914457263,147.0,0.029111485928297043,2424832.0,2999.0670499801636,0.006203897763043642,0.0716552734375,2.2532050609588623,-0.020489059388637543,0.2130146622657776,-0.02253204956650734,0.002042988082394004,0.0,0.11859715729951859,0.6280359029769897,0.7521172342245311,7.450770854949951,1.258207082748413,7.5693678855896,1.2614243030548096,4.55942964553833,2.758490562438965,,,,,,
8514280000.0,400.99,24.18000030517578,6529777152.0,3603.119864997327,148.0,0.03182205557823181,2441216.0,3003.614220380783,0.004668269772082567,0.05712890625,2.2645578384399414,-0.021670343354344368,0.23404081165790558,-0.022645579650998116,0.0009752311743795872,0.0,0.05803932249546051,0.6747768521308899,0.7361048017411347,7.776562690734863,1.1984522342681885,7.834601879119873,1.3135424852371216,4.547170400619507,2.8058817386627197,,,,,,
8514280000.0,404.76,24.719999313354492,6529777152.0,3535.436810917051,149.0,0.028951846063137054,2457600.0,3008.2484426498413,0.0033463670406490564,0.03424072265625,2.267538547515869,-0.022296303883194923,0.15886791050434113,-0.02267538569867611,0.00037907809019088745,0.0,0.09745100885629654,0.5548548698425293,0.7446896180034815,7.878066062927246,1.0315030813217163,7.9755167961120605,1.0981038808822632,4.6342222690582275,2.760159730911255,,,,,,
8514280000.0,396.92,23.639999389648438,6529777152.0,3543.5721003038616,150.0,0.03451751917600632,2473984.0,3012.8720257282257,0.0030115970876067877,0.02850341796875,2.2628965377807617,-0.019974054768681526,0.22446933388710022,-0.022628962993621826,0.002654906827956438,0.0,0.033301226794719696,0.6683451533317566,0.7539369191583044,7.687131404876709,1.1131985187530518,7.720432281494141,1.347338318824768,4.623583078384399,2.7622568607330322,,,,,,
8514280000.0,397.16,22.940000534057617,6529777152.0,3505.65414673019,151.0,0.028322521597146988,2490368.0,3017.545618534088,0.006011090241372585,0.064208984375,2.2958908081054688,-0.021838072687387466,0.2181778997182846,-0.0229589082300663,0.0011208353098481894,0.0,0.027291618287563324,0.6608352065086365,0.7647169404339815,7.688969612121582,1.2331191301345825,7.716261386871338,1.3623780012130737,4.673592805862427,2.7668910026550293,,,,,,
8514280000.0,396.59,23.100000381469727,6529777152.0,3409.4026571911804,152.0,0.02706208825111389,2506752.0,3022.351152420044,0.002470877952873707,0.0225830078125,2.3078365325927734,-0.022554216906428337,0.16955147683620453,-0.02307836525142193,0.000524153932929039,0.0,0.05178183317184448,0.5769991874694824,0.7948990625832979,7.973178863525391,1.1180198192596436,8.024959564208984,1.2740588188171387,4.8055338859558105,2.800159454345703,,,,,,
8514280000.0,406.59,23.93000030517578,6529777152.0,3552.443540220977,153.0,0.031670503318309784,2523136.0,3026.963189125061,0.004202906973659992,0.04351806640625,2.3034744262695312,-0.02210904285311699,0.1915975958108902,-0.02303474396467209,0.0009257023921236396,0.0,0.06974735856056213,0.6002767086029053,0.7812248997429375,7.943755149841309,1.2313437461853027,8.01350212097168,1.283369541168213,4.61203670501709,2.7833454608917236,,,,,,
8514280000.0,403.63,23.969999313354492,6529777152.0,3632.010898652594,154.0,0.028957229107618332,2539520.0,3031.4741888046265,0.0031558447517454624,0.02703857421875,2.3130548000335693,-0.021606504917144775,0.21482254564762115,-0.023130545392632484,0.001524041872471571,0.0,0.016856396570801735,0.6498307585716248,0.7635043192521247,7.928747177124023,1.2525138854980469,7.945603370666504,1.3362518548965454,4.51099967956543,2.766324520111084,,,,,,
8514280000.0,403.15,24.190000534057617,6529777152.0,3543.1418304901017,155.0,0.03203196823596954,2555904.0,3036.0983333587646,0.0046427613124251366,0.052978515625,2.2803444862365723,-0.022947560995817184,0.21503889560699463,-0.022803444415330887,-0.00014411844313144684,0.0,0.05802891030907631,0.6436997652053833,0.757442602052106,7.950045108795166,1.2090702056884766,8.008073806762695,1.3070000410079956,4.624144554138184,2.803353786468506,,,,,,
8514280000.0,403.99,24.90999984741211,6529777152.0,3580.936782488169,156.0,0.031541693955659866,2572288.0,3040.673672437668,0.004105742555111647,0.0496826171875,2.288109302520752,-0.022236350923776627,0.16934125125408173,-0.022881094366312027,0.0006447415798902512,0.0,0.06059044972062111,0.5798580050468445,0.7487436398567338,8.144608497619629,1.0510390996932983,8.2052001953125,1.1568182706832886,4.575339078903198,2.7724921703338623,,,,,,
8514280000.0,393.88,24.450000762939453,6529777152.0,3520.0691692711807,157.0,0.03355180472135544,2588672.0,3045.3281264305115,0.0016653987113386393,0.01373291015625,2.2787601947784424,-0.022742513567209244,0.21934886276721954,-0.022787602618336678,4.508811980485916e-05,0.0,0.0702296569943428,0.6600326299667358,0.7808990158410993,8.133975982666016,1.2117359638214111,8.204205513000488,1.4100786447525024,4.654453992843628,2.764127016067505,,,,,,
8514280000.0,391.98,25.350000381469727,6529777152.0,3477.331478742423,158.0,0.029805835336446762,2605056.0,3050.039785385132,0.0038116874638944864,0.0389404296875,2.2968649864196777,-0.021218316629529,0.15284422039985657,-0.022968649864196777,0.001750333234667778,0.0,0.07284935563802719,0.5436803698539734,0.7869911087597501,8.247178077697754,1.1074025630950928,8.320026397705078,1.1779917478561401,4.711658954620361,2.9293086528778076,,,,,,
8514280000.0,388.22,24.030000686645508,6529777152.0,3489.27495421815,159.0,0.032204024493694305,2621440.0,3054.7353167533875,0.004232474602758884,0.04559326171875,2.297853708267212,-0.02197008579969406,0.27922821044921875,-0.022978538647294044,0.0010084491223096848,0.0,0.006817712914198637,0.7318306565284729,0.7273745709737657,8.176881790161133,1.214752197265625,8.183699607849121,1.401612639427185,4.695531368255615,2.7755773067474365,,,,,,
,,,,,,,,,,,,,,,,,,,,,,,,,,0.025836678221821785,0.6838220953941345,0.5513043999671936,0.025836678221821785,0.6838220953941345,0.5513043999671936
,,,,,,,,,,,,,,,,,,,,,,,,,,0.015951644629240036,0.5531876087188721,0.4941885769367218,0.015951644629240036,0.5531876087188721,0.4941885769367218
,,,,,,,,,,,,,,,,,,,,,,,,,,0.014519359916448593,0.5122305154800415,0.4665282368659973,0.014519359916448593,0.5122305154800415,0.4665282368659973
,,,,,,,,,,,,,,,,,,,,,,,,,,0.014362307265400887,0.47615769505500793,0.4457704424858093,0.014362307265400887,0.47615769505500793,0.4457704424858093
,,,,,,,,,,,,,,,,,,,,,,,,,,0.01429981179535389,0.4566061496734619,0.43356895446777344,0.01429981179535389,0.4566061496734619,0.43356895446777344
,,,,,,,,,,,,,,,,,,,,,,,,,,0.013437526300549507,0.4342353940010071,0.41789498925209045,0.013437526300549507,0.4342353940010071,0.41789498925209045
8514280000.0,388.82,23.010000228881836,6327188480.0,28.132418069855323,160.0,0.028523651883006096,2637824.0,3637.1239318847656,0.0035038860514760017,0.02716064453125,2.279959201812744,-0.021989410743117332,0.2817092835903168,-0.022799592465162277,0.0008101807907223701,0.0,0.06960289180278778,0.7378444075584412,0.7948156982973322,7.214776992797852,1.5313572883605957,7.284379959106445,1.6288928985595703,582.3886151313782,2.7813196182250977,,,,,,
8514280000.0,397.47,23.139999389648438,6529777152.0,3474.9059885141146,161.0,0.02846434898674488,2654208.0,3641.838879585266,0.003552777227014303,0.0350341796875,2.273930549621582,-0.021334964781999588,0.20820526778697968,-0.022739306092262268,0.0014043431729078293,0.0,0.09015953540802002,0.6455585956573486,0.7368147293024581,7.656601905822754,1.2314714193344116,7.746761322021484,1.2583602666854858,4.714947700500488,2.7855889797210693,,,,,,
8514280000.0,407.74,24.690000534057617,6529777152.0,3492.6827807699715,162.0,0.03240804374217987,2670592.0,3646.5298295021057,0.005122635513544083,0.05950927734375,2.2662320137023926,-0.022150922566652298,0.19336983561515808,-0.022662317380309105,0.0005113966763019562,0.0,0.0911371111869812,0.6296288371086121,0.7754443354788193,7.75121545791626,1.2762718200683594,7.842352867126465,1.3286876678466797,4.6909499168396,2.771494150161743,,,,,,
8514280000.0,416.04,25.639999389648438,6529777152.0,3515.5525882992597,163.0,0.029400303959846497,2686976.0,3651.190263271332,0.004665691405534744,0.0545654296875,2.268902063369751,-0.02003140188753605,0.14582812786102295,-0.02268901839852333,0.0026576193049550056,0.0,0.07941969484090805,0.5381702780723572,0.770776853279444,7.952373027801514,1.0919466018676758,8.031791687011719,1.1240569353103638,4.660433769226074,2.746316432952881,,,,,,
8514280000.0,407.43,24.219999313354492,6529777152.0,3637.1787459905117,164.0,0.03119809180498123,2703360.0,3655.6948535442352,0.00422244006767869,0.0343017578125,2.2660107612609863,-0.0213560052216053,0.21178290247917175,-0.022660108283162117,0.001304103061556816,0.0,0.03738490492105484,0.6311022043228149,0.8013686724420392,7.864292144775391,1.2757062911987305,7.901676654815674,1.4160407781600952,4.504590272903442,2.749289035797119,,,,,,
8514280000.0,404.57,24.489999771118164,6529777152.0,3655.3521734696965,165.0,0.03209184110164642,2719744.0,3660.1770482063293,0.0049232435412704945,0.0511474609375,2.2762444019317627,-0.0208258256316185,0.1638161540031433,-0.022762443870306015,0.0019366182386875153,0.0,0.09217357635498047,0.5739392042160034,0.7553552090681338,8.151687622070312,1.0579384565353394,8.243861198425293,1.160374641418457,4.482194662094116,2.755464792251587,,,,,,
8514280000.0,401.23,24.56999969482422,6529777152.0,3550.5205533666885,166.0,0.03108878806233406,2736128.0,3664.7915828227997,0.002634181175380945,0.02197265625,2.2725472450256348,-0.02207164838910103,0.15576454997062683,-0.02272547222673893,0.0006538238376379013,0.0,0.09476393461227417,0.5556502938270569,0.7898501431211594,8.29764175415039,1.1261327266693115,8.392406463623047,1.212101936340332,4.614534616470337,2.7587881088256836,,,,,,
8514280000.0,407.71,25.510000228881836,6529777152.0,3575.6016162550004,167.0,0.029217705130577087,2752512.0,3669.373748779297,0.0036166757345199585,0.0404052734375,2.2768402099609375,-0.02093580923974514,0.20747800171375275,-0.022768400609493256,0.0018325932323932648,0.0,0.007743260823190212,0.6400253772735596,0.7306537128462778,8.244771957397461,1.1471155881881714,8.25251579284668,1.233224630355835,4.582165956497192,2.7524123191833496,,,,,,
8514280000.0,411.08,24.989999771118164,6529777152.0,3449.8141461730315,168.0,0.028757169842720032,2768896.0,3674.122990131378,0.00553926732391119,0.0665283203125,2.2650704383850098,-0.02078157104551792,0.1838466376066208,-0.02265070378780365,0.0018691334407776594,0.0,0.03407486900687218,0.5975767374038696,0.7255406378836784,8.243875503540039,1.0236924886703491,8.277950286865234,1.1406593322753906,4.749241352081299,2.7537763118743896,,,,,,
8514280000.0,407.45,23.68000030517578,6529777152.0,3493.445557703447,169.0,0.03416340425610542,2785280.0,3678.812915802002,0.005366331897675991,0.06024169921875,2.2463741302490234,-0.02025984227657318,0.22769926488399506,-0.022463738918304443,0.002203899435698986,0.0,0.023272544145584106,0.6688615083694458,0.7100809742194931,8.367199897766113,1.0927056074142456,8.390472412109375,1.242217779159546,4.689925670623779,2.7502756118774414,,,,,,
8514280000.0,412.05,24.469999313354492,6529777152.0,3482.663644551128,170.0,0.029089899733662605,2801664.0,3683.5173609256744,0.006752480287104845,0.062744140625,2.238335609436035,-0.019594108685851097,0.15386147797107697,-0.022383354604244232,0.002789245219901204,0.0,0.04066062718629837,0.5501366257667542,0.7334632512982402,8.498245239257812,0.9693099856376648,8.53890609741211,1.0655975341796875,4.704445123672485,2.743407964706421,,,,,,
8514280000.0,406.91,23.8700008392334,6529777152.0,3528.71789416097,171.0,0.028215549886226654,2818048.0,3688.160407066345,0.004231522791087627,0.0439453125,2.2496771812438965,-0.02119576185941696,0.21177230775356293,-0.022496772930026054,0.0013010092079639435,0.0,0.009249973110854626,0.649657666683197,0.7483883115527656,8.326556205749512,1.1573234796524048,8.335805892944336,1.2951443195343018,4.643046140670776,2.7506625652313232,,,,,,
8514280000.0,411.59,24.5,6529777152.0,3597.113552767655,172.0,0.03297856077551842,2834432.0,3692.715170145035,0.004533980507403612,0.04754638671875,2.2413156032562256,-0.02034517005085945,0.1563124805688858,-0.022413156926631927,0.002067987807095051,0.0,0.0215825866907835,0.5641511678695679,0.7349553375262277,8.612114906311035,1.0262031555175781,8.633697509765625,1.0958104133605957,4.554763078689575,2.742738723754883,,,,,,
8514280000.0,411.95,24.139999389648438,6529777152.0,3498.5082727724994,173.0,0.0259043388068676,2850816.0,3697.398308992386,0.003841462777927518,0.0367431640625,2.2503280639648438,-0.02057129703462124,0.16037516295909882,-0.022503279149532318,0.0019319858402013779,0.0,0.005411448888480663,0.5596438646316528,0.7290959206896384,8.49216079711914,0.97670578956604,8.49757194519043,1.0752391815185547,4.683138847351074,2.7488746643066406,,,,,,
8514280000.0,413.22,24.18000030517578,6529777152.0,3653.465748869953,174.0,0.032245881855487823,2867200.0,3701.8828179836273,0.003725989256054163,0.04150390625,2.255557060241699,-0.021435458213090897,0.17609520256519318,-0.02255556918680668,0.0011201109737157822,0.0,-0.0043012723326683044,0.5909390449523926,0.7637554838227743,8.771675109863281,1.0836127996444702,8.767374038696289,1.2158021926879883,4.484508991241455,2.7498741149902344,,,,,,
8514280000.0,415.4,24.110000610351562,6529777152.0,3562.1679095990376,175.0,0.028091393411159515,2883584.0,3706.482264280319,0.0015613625291734934,0.00653076171875,2.257948875427246,-0.021511130034923553,0.16964395344257355,-0.022579489275813103,0.0010683592408895493,0.0,0.016475068405270576,0.5720956921577454,0.7079272720235261,8.699163436889648,0.9795135855674744,8.715639114379883,1.0585753917694092,4.5994462966918945,2.7443039417266846,,,,,,
8514280000.0,415.16,25.030000686645508,6529777152.0,3596.008626928062,176.0,0.03316643089056015,2899968.0,3711.038426876068,0.0027848752215504646,0.02252197265625,2.2567784786224365,-0.02210140787065029,0.14268334209918976,-0.022567782551050186,0.00046637561172246933,0.0,0.029279114678502083,0.5343783497810364,0.7152397837059863,8.763692855834961,0.936296284198761,8.792972564697266,1.0014104843139648,4.556162595748901,2.758106231689453,,,,,,
8514280000.0,416.46,25.229999542236328,6529777152.0,3629.587465405231,177.0,0.03288291394710541,2916352.0,3715.5524384975433,0.005032393615692854,0.0618896484375,2.2505083084106445,-0.020769411697983742,0.15872925519943237,-0.022505082190036774,0.001735675148665905,0.0,-0.0008907086448743939,0.5540452599525452,0.7106030712267366,8.771116256713867,0.8816176056861877,8.770225524902344,1.0299049615859985,4.51401162147522,2.7606570720672607,,,,,,
8514280000.0,410.14,24.809999465942383,6529777152.0,3499.3682164406277,178.0,0.02649657242000103,2932736.0,3720.234426498413,0.004855948034673929,0.05072021484375,2.2565150260925293,-0.02185356244444847,0.1616092026233673,-0.022565148770809174,0.0007115863263607025,0.0,0.0017465995624661446,0.5634446740150452,0.7609151790449599,8.853311538696289,1.009658932685852,8.855058670043945,1.152327299118042,4.681988000869751,2.752662420272827,,,,,,
8514280000.0,409.99,25.079999923706055,6529777152.0,3522.475081246414,179.0,0.03258166089653969,2949120.0,3724.885701417923,0.003262082114815712,0.02740478515625,2.2508339881896973,-0.022296223789453506,0.14187031984329224,-0.02250833995640278,0.00021211616694927216,0.0,0.013559577986598015,0.523230791091919,0.7388086497406419,8.935144424438477,0.9659712314605713,8.94870376586914,1.0238001346588135,4.651274919509888,2.763680934906006,,,,,,
8514280000.0,413.73,25.540000915527344,6529777152.0,3565.7799957181255,180.0,0.029523178935050964,2965504.0,3729.480488538742,0.0030236095190048218,0.02569580078125,2.2568295001983643,-0.021518979221582413,0.156120166182518,-0.022568294778466225,0.0010493174195289612,0.0,0.0037619781214743853,0.5565966367721558,0.759036894085507,8.911203384399414,1.034544825553894,8.914965629577637,1.1338732242584229,4.594787120819092,2.748291015625,,,,,,
8514280000.0,412.29,25.040000915527344,6529777152.0,3519.8259463548216,181.0,0.03178340196609497,2981888.0,3734.135264158249,0.004771415144205093,0.0433349609375,2.248929977416992,-0.020359385758638382,0.19212570786476135,-0.02248929813504219,0.002129911445081234,0.0,-0.021831586956977844,0.6019092202186584,0.7231490719756104,8.872714042663574,1.018211841583252,8.850881576538086,1.1439473628997803,4.654775619506836,2.759121894836426,,,,,,
8514280000.0,412.27,24.860000610351562,6529777152.0,3499.4587426611765,182.0,0.032040733844041824,2998272.0,3738.8171310424805,0.010015266016125679,0.0955810546875,2.22453236579895,-0.01697700470685959,0.16704823076725006,-0.022245323285460472,0.005268319044262171,0.0,-0.005676701664924622,0.5766275525093079,0.7020675451437097,9.006675720214844,0.8841579556465149,9.000997543334961,1.056415319442749,4.681866884231567,2.7565412521362305,,,,,,
8514280000.0,409.08,25.059999465942383,6529777152.0,3540.982924778325,183.0,0.026653219014406204,3014656.0,3743.4440948963165,0.005948449485003948,0.052978515625,2.24554181098938,-0.017821285873651505,0.153283029794693,-0.022455420345067978,0.004634133540093899,0.0,-0.0006193940062075853,0.553016185760498,0.6547370911716582,8.95826530456543,0.8604573607444763,8.957645416259766,0.9411501288414001,4.62696385383606,2.7771897315979004,,,,,,
