CpuMaxMemory,EpLenMean,EpRewMean,GpuMaxMemory,IPS_total,Iter,Misc/FrameRewMean,Misc/InteractCount,Misc/TimeElapsed,Opt/approxkl,Opt/clipfrac,Opt/entropy,Opt/loss_pi,Opt/loss_vf,Opt/negent,Opt/pg,Opt/pi_kl,VFStats/AdvMean,VFStats/AdvStd,VFStats/EV,VFStats/VpredMean,VFStats/VpredStd,VFStats/VtargMean,VFStats/VtargStd,del_time,wait_optimization,scaled/pol_distance,scaled/vf_aux,scaled/vf_true,unscaled/pol_distance,unscaled/vf_aux,unscaled/vf_true
2364124000.0,86.24,-3.2200000286102295,6317166080.0,3478.500417580147,0.0,-0.014196686446666718,16384.0,4.710075616836548,0.004955731797963381,0.03399658203125,2.7030017375946045,-0.0269803237169981,0.15945422649383545,-0.027030015364289284,4.969444125890732e-05,0.0,-0.22205528616905212,0.5513244271278381,0.002638607953763805,0.07174252718687057,0.018013695254921913,-0.15031275153160095,0.5520532131195068,4.710075616836548,2.726045846939087,,,,,,
2563108000.0,81.91,-3.3399999141693115,6519754752.0,3568.014455760723,1.0,-0.015441583469510078,32768.0,9.301985263824463,0.0016028720419853926,0.0045166015625,2.7021164894104004,-0.02660709246993065,0.16512629389762878,-0.027021165937185287,0.00041407160460948944,0.0,-0.1867828369140625,0.5600754618644714,0.011213572703673291,-0.14803583920001984,0.029711760580539703,-0.33481866121292114,0.5632423758506775,4.591909646987915,2.726473808288574,,,,,,
2760844000.0,86.09,-2.569999933242798,6519754752.0,3533.48040525709,2.0,-0.012943325564265251,49152.0,13.938773393630981,0.0003335546934977174,0.0,2.7010135650634766,-0.027080267667770386,0.15521764755249023,-0.027010135352611542,-7.013697177171707e-05,0.0,-0.12810392677783966,0.5398855209350586,0.009316792325935519,-0.20580701529979706,0.038770854473114014,-0.3339109420776367,0.5424183011054993,4.6367881298065186,2.736015796661377,,,,,,
2958844000.0,86.6,-2.75,6519754752.0,3586.668989737988,3.0,-0.013078458607196808,65536.0,18.506800174713135,0.002968480344861746,0.024658203125,2.686434745788574,-0.027814991772174835,0.1601106822490692,-0.026864347979426384,-0.0009506435599178076,0.0,-0.09745664894580841,0.554128885269165,-0.002983301697676799,-0.41954004764556885,0.07107149809598923,-0.5169966816902161,0.5533041954040527,4.568026781082153,2.7278072834014893,,,,,,
3156844000.0,89.63,-3.059999942779541,6519754752.0,3592.1683200855437,4.0,-0.013418206013739109,81920.0,23.06783366203308,0.001784556545317173,0.0057373046875,2.676577091217041,-0.02732553333044052,0.1516391932964325,-0.026765767484903336,-0.0005597658455371857,0.0,-0.10628475248813629,0.5533163547515869,0.012065061726200033,-0.3913821876049042,0.05086396634578705,-0.4976669251918793,0.5566847324371338,4.561033487319946,2.735706329345703,,,,,,
3354580000.0,82.09,-2.1700000762939453,6519754752.0,3510.2534321135977,5.0,-0.009884226135909557,98304.0,27.735302925109863,0.0024979272857308388,0.02783203125,2.654602527618408,-0.02694147825241089,0.14397062361240387,-0.02654602751135826,-0.0003954470157623291,0.0,0.01853151060640812,0.5366793274879456,0.046572656960754855,-0.6512380242347717,0.08486316353082657,-0.6327065229415894,0.549630880355835,4.667469263076782,2.72969913482666,,,,,,
3552580000.0,77.56,-1.3700000047683716,6519754752.0,3655.0006654258077,6.0,-0.008591415360569954,114688.0,32.217928647994995,0.003458185587078333,0.0206298828125,2.660242795944214,-0.026555977761745453,0.12062837183475494,-0.026602428406476974,4.6449946239590645e-05,0.0,0.036963336169719696,0.4909379482269287,0.08846404444767786,-0.6187600493431091,0.13436728715896606,-0.5817966461181641,0.5142090320587158,4.482625722885132,2.7383880615234375,,,,,,
3751272000.0,81.28,-1.8799999952316284,6519754752.0,3560.609962001391,7.0,-0.010522358119487762,131072.0,36.819387435913086,0.002423457568511367,0.027099609375,2.628525495529175,-0.026161357760429382,0.12996138632297516,-0.02628525346517563,0.00012389570474624634,0.0,0.01109121274203062,0.5111316442489624,0.18969252190176977,-0.6463519334793091,0.1943012773990631,-0.6352607607841492,0.5678162574768066,4.601458787918091,2.737304449081421,,,,,,
3948216000.0,79.91,-1.3700000047683716,6519754752.0,3397.563531683436,8.0,-0.008298857137560844,147456.0,41.641666650772095,0.003538682358339429,0.03009033203125,2.627563238143921,-0.02712918631732464,0.13064293563365936,-0.02627563290297985,-0.0008535534143447876,0.0,0.04174049198627472,0.4974355697631836,0.22782206851838627,-0.6092807650566101,0.2613845765590668,-0.5675402879714966,0.5660805106163025,4.822279214859009,2.7467563152313232,,,,,,
4145952000.0,78.98,-2.140000104904175,6519754752.0,3469.2713831447154,9.0,-0.011469995602965355,163840.0,46.364272117614746,0.0028925484512001276,0.0330810546875,2.6182825565338135,-0.02638416364789009,0.14004184305667877,-0.02618282474577427,-0.000201336108148098,0.0,-0.03629836067557335,0.504835844039917,0.22816718658600899,-0.4864906668663025,0.18562516570091248,-0.5227890014648438,0.5746303796768188,4.722605466842651,2.7406721115112305,,,,,,
4343952000.0,77.02,-1.2200000286102295,6519754752.0,3495.220800302813,10.0,-0.008332416415214539,180224.0,51.05181574821472,0.0032780608162283897,0.00469970703125,2.6216447353363037,-0.024654526263475418,0.1103636622428894,-0.026216447353363037,0.0015619229525327682,0.0,0.07646805047988892,0.46489936113357544,0.36313716582275335,-0.6791329383850098,0.3018607199192047,-0.6026648283004761,0.5825536847114563,4.687543630599976,2.749636650085449,,,,,,
4541688000.0,76.54,-1.850000023841858,6519754752.0,3515.3894730778816,11.0,-0.010109568014740944,196608.0,55.71246576309204,0.002745370613411069,0.01861572265625,2.5865652561187744,-0.025609852746129036,0.11899260431528091,-0.025865651667118073,0.00025579589419066906,0.0,0.03714608773589134,0.4824258089065552,0.45505964792179354,-0.5930752754211426,0.39293086528778076,-0.5559291839599609,0.6535157561302185,4.660650014877319,2.7523093223571777,,,,,,
4739688000.0,75.03,-1.899999976158142,6519754752.0,3488.5936908769736,12.0,-0.010120092891156673,212992.0,60.40891408920288,0.0018717400962486863,0.01904296875,2.596313953399658,-0.02604104019701481,0.10680653154850006,-0.02596314065158367,-7.790117524564266e-05,0.0,-0.00821538083255291,0.4600796699523926,0.47366072041181995,-0.47301599383354187,0.34836384654045105,-0.4812313914299011,0.6341618895530701,4.69644832611084,2.7548635005950928,,,,,,
4938480000.0,77.68,-1.909999966621399,6519754752.0,3603.4183830795355,13.0,-0.010866548866033554,229376.0,64.95570778846741,0.0022203722037374973,0.01702880859375,2.6154727935791016,-0.026325490325689316,0.11363326013088226,-0.02615472860634327,-0.0001707624178379774,0.0,-0.016296787187457085,0.4717960059642792,0.43140529759950696,-0.40245041251182556,0.3744280934333801,-0.418747216463089,0.6256808638572693,4.546793699264526,2.761007308959961,,,,,,
5135392000.0,75.94,-1.25,6519754752.0,3441.067821549631,14.0,-0.009135488420724869,245760.0,69.7170205116272,0.004114511888474226,0.04254150390625,2.56723690032959,-0.02545403689146042,0.12567275762557983,-0.025672370567917824,0.00021833088248968124,0.0,0.006975453346967697,0.4578450322151184,0.517443423626313,-0.4711344242095947,0.4184729754924774,-0.46415895223617554,0.6590894460678101,4.76131272315979,2.7568917274475098,,,,,,
5333124000.0,74.89,-1.3700000047683716,6519754752.0,3520.868489693209,15.0,-0.00907418318092823,262144.0,74.37041783332825,0.003791848197579384,0.0404052734375,2.610053539276123,-0.026420598849654198,0.10283195227384567,-0.026100534945726395,-0.00032006576657295227,0.0,0.011117457412183285,0.453075647354126,0.37838263143944595,-0.43338117003440857,0.2860576808452606,-0.4222636818885803,0.5746575593948364,4.65339732170105,2.7540879249572754,,,,,,
5530860000.0,74.85,-1.649999976158142,6519754752.0,3572.12576764642,16.0,-0.00987014640122652,278528.0,78.95704245567322,0.004788343328982592,0.0286865234375,2.525102376937866,-0.026335179805755615,0.09754925966262817,-0.025251023471355438,-0.001084156334400177,0.0,-0.04975440353155136,0.44716984033584595,0.4175036765439054,-0.2952422499656677,0.27490660548210144,-0.3449966609477997,0.5859032273292542,4.586624622344971,2.7599949836730957,,,,,,
5728860000.0,74.47,-1.100000023841858,6519754752.0,3517.0364267333857,17.0,-0.008332699537277222,294912.0,83.61550998687744,0.0036501388531178236,0.03076171875,2.5732955932617188,-0.025621607899665833,0.0852138102054596,-0.02573295682668686,0.00011135032400488853,0.0,0.0007053804583847523,0.4145611822605133,0.5377613216199202,-0.3461044430732727,0.3789331316947937,-0.34539905190467834,0.6097552180290222,4.658467531204224,2.7589404582977295,,,,,,
5926596000.0,77.14,-1.8899999856948853,6519754752.0,3515.522194128184,18.0,-0.01110822893679142,311296.0,88.27598404884338,0.0012091564713045955,0.00244140625,2.5647497177124023,-0.02599707618355751,0.09077107906341553,-0.025647494941949844,-0.0003495847340673208,0.0,-0.021940138190984726,0.42321333289146423,0.6918768103028187,-0.3968156576156616,0.5641635060310364,-0.41875582933425903,0.7624250054359436,4.660474061965942,2.768977403640747,,,,,,
6125388000.0,75.32,-1.4199999570846558,6519754752.0,3407.474740314432,19.0,-0.008283098228275776,327680.0,93.08423686027527,0.0025486056692898273,0.02093505859375,2.4967784881591797,-0.024874169379472733,0.07769756764173508,-0.02496778406202793,9.361840784549713e-05,0.0,0.03193558380007744,0.3840285837650299,0.6236142459758145,-0.36154240369796753,0.481273889541626,-0.3296067714691162,0.6259604692459106,4.808252811431885,2.7585692405700684,,,,,,
6322312000.0,74.77,-1.090000033378601,6519754752.0,3517.7414502798115,20.0,-0.007317636162042618,344064.0,97.74177074432373,0.001505145221017301,0.0042724609375,2.5494909286499023,-0.0242573581635952,0.0771784782409668,-0.025494910776615143,0.0012375498190522194,0.0,0.044981684535741806,0.36872825026512146,0.6243177523152539,-0.39010384678840637,0.444411039352417,-0.34512215852737427,0.60158371925354,4.657533884048462,2.7612452507019043,,,,,,
6520220000.0,74.32,-1.5099999904632568,6519754752.0,3534.5403257757957,21.0,-0.009575502015650272,360448.0,102.37716841697693,0.0044645946472883224,0.06182861328125,2.4761228561401367,-0.02455105260014534,0.07949414849281311,-0.024761229753494263,0.0002101752907037735,0.0,0.022827517241239548,0.3864283859729767,0.6599751315538507,-0.41097673773765564,0.4947318732738495,-0.388149231672287,0.6626948714256287,4.635397672653198,2.7692019939422607,,,,,,
6718220000.0,77.5,-1.059999942779541,6519754752.0,3533.5341856352616,22.0,-0.006086657755076885,376832.0,107.01388597488403,0.0008240280440077186,0.00054931640625,2.542611837387085,-0.025085726752877235,0.06932333111763,-0.025426119565963745,0.0003403928130865097,0.0,0.05299113318324089,0.35563504695892334,0.6769840124238649,-0.39192312955856323,0.4648977816104889,-0.33893200755119324,0.6257380843162537,4.6367175579071045,2.769596815109253,,,,,,
6915956000.0,78.77,-1.409999966621399,6519754752.0,3426.0793197246353,23.0,-0.009354624897241592,393216.0,111.79602861404419,0.0014947624877095222,0.0064697265625,2.526355504989624,-0.02592318505048752,0.07524069398641586,-0.025263555347919464,-0.0006596320308744907,0.0,0.024790391325950623,0.399909108877182,0.7415242459749635,-0.4448586702346802,0.6592583060264587,-0.42006826400756836,0.7865954637527466,4.782142639160156,2.764218807220459,,,,,,
7113956000.0,72.54,-1.0700000524520874,6519754752.0,3506.037616008918,24.0,-0.006536099594086409,409600.0,116.46911025047302,0.0033456599339842796,0.00701904296875,2.468930721282959,-0.02450651489198208,0.056140609085559845,-0.02468930371105671,0.0001827920787036419,0.0,0.04827047511935234,0.3292398750782013,0.777888693349144,-0.33799782395362854,0.6310076713562012,-0.2897273898124695,0.6985976099967957,4.673081636428833,2.7659740447998047,,,,,,
7312748000.0,77.4,-1.440000057220459,6519754752.0,3505.032439444646,25.0,-0.008843490853905678,425984.0,121.14353203773499,0.0006751256296411157,0.00048828125,2.4677510261535645,-0.024137642234563828,0.06692084670066833,-0.02467750571668148,0.0005398648791015148,0.0,0.020502232015132904,0.36124852299690247,0.7609691057901726,-0.3425554633140564,0.6252325177192688,-0.3220532536506653,0.7388887405395508,4.674421787261963,2.7695040702819824,,,,,,
7509692000.0,76.26,-1.4800000190734863,6519754752.0,3515.696293301345,26.0,-0.008713415823876858,442368.0,125.80377531051636,0.004603080917149782,0.0452880859375,2.400294780731201,-0.024372523650527,0.06657767295837402,-0.02400294877588749,-0.0003695739433169365,0.0,0.013884549960494041,0.34121349453926086,0.7946177530912455,-0.30201905965805054,0.6530618667602539,-0.28813451528549194,0.7529129981994629,4.660243272781372,2.829423666000366,,,,,,
7707428000.0,77.12,-1.1699999570846558,6519754752.0,3616.2291165914403,27.0,-0.008744096383452415,458752.0,130.33446168899536,0.005728190764784813,0.03924560546875,2.4519686698913574,-0.023069992661476135,0.06031663715839386,-0.02451968751847744,0.0014496967196464539,0.0,-0.006716084200888872,0.3472135066986084,0.7482544565755272,-0.20234911143779755,0.5821635723114014,-0.20906519889831543,0.6920153498649597,4.530686378479004,2.775756597518921,,,,,,
7905428000.0,76.68,-1.5199999809265137,6519754752.0,3587.5505376798783,28.0,-0.0098517294973135,475136.0,134.9013659954071,0.005432244390249252,0.05731201171875,2.3278393745422363,-0.021984755992889404,0.051319658756256104,-0.02327839471399784,0.0012936373241245747,0.0,-0.039968788623809814,0.3177860975265503,0.8123444608938444,-0.15480884909629822,0.616672933101654,-0.19477763772010803,0.7335913777351379,4.566904306411743,2.7724649906158447,,,,,,
8103428000.0,76.8,-1.2899999618530273,6519754752.0,3347.9281801577135,29.0,-0.007331389933824539,491520.0,139.79513883590698,0.002136909868568182,0.0269775390625,2.388593912124634,-0.023956578224897385,0.037611186504364014,-0.0238859374076128,-7.064081728458405e-05,0.0,-0.025123102590441704,0.27183422446250916,0.8385133038574138,-0.1185360699892044,0.5830941200256348,-0.14365917444229126,0.6764501929283142,4.893772840499878,2.884887456893921,,,,,,
8301164000.0,77.55,-1.0299999713897705,6519754752.0,3544.978925527896,30.0,-0.007437113672494888,507904.0,144.41688704490662,0.0033141367603093386,0.03472900390625,2.3353095054626465,-0.023090017959475517,0.050467584282159805,-0.02335309609770775,0.0002630783710628748,0.0,-0.049109287559986115,0.30140221118927,0.7564030842776808,-0.012209665030241013,0.4856753349304199,-0.06131894886493683,0.6106756329536438,4.621748208999634,2.7649292945861816,,,,,,
8499956000.0,77.04,-1.190000057220459,6519754752.0,3589.675109780539,31.0,-0.008768824860453606,524288.0,148.98108839988708,0.004060901235789061,0.04571533203125,2.338153839111328,-0.022165460512042046,0.04080040380358696,-0.023381538689136505,0.0012160777114331722,0.0,-0.06349582970142365,0.29188916087150574,0.7716387860981891,-0.007969852536916733,0.4568535089492798,-0.07146568596363068,0.6108109354972839,4.564201354980469,2.7761573791503906,,,,,,
,,,,,,,,,,,,,,,,,,,,,,,,,,0.0017661491874605417,0.1400601863861084,0.10424747318029404,0.0017661491874605417,0.1400601863861084,0.10424747318029404
,,,,,,,,,,,,,,,,,,,,,,,,,,0.001851251581683755,0.09679730236530304,0.08639433979988098,0.001851251581683755,0.09679730236530304,0.08639433979988098
,,,,,,,,,,,,,,,,,,,,,,,,,,0.001684999093413353,0.08595611155033112,0.08028752356767654,0.001684999093413353,0.08595611155033112,0.08028752356767654
,,,,,,,,,,,,,,,,,,,,,,,,,,0.0010886951349675655,0.079376719892025,0.07539114356040955,0.0010886951349675655,0.079376719892025,0.07539114356040955
,,,,,,,,,,,,,,,,,,,,,,,,,,0.0014046444557607174,0.07786865532398224,0.07472841441631317,0.0014046444557607174,0.07786865532398224,0.07472841441631317
,,,,,,,,,,,,,,,,,,,,,,,,,,0.0009444387396797538,0.07501586526632309,0.07217320054769516,0.0009444387396797538,0.07501586526632309,0.07217320054769516
8512072000.0,75.77,-1.309999942779541,6327188480.0,28.198993459055377,32.0,-0.007634026929736137,540672.0,729.994734287262,0.0017772680148482323,0.00860595703125,2.329432487487793,-0.02429923787713051,0.030730124562978745,-0.023294322192668915,-0.0010049124248325825,0.0,0.018206320703029633,0.2590871751308441,0.8195063137856021,-0.28308847546577454,0.4790688455104828,-0.2648821473121643,0.609838604927063,581.0136458873749,2.80253529548645,,,,,,
8512072000.0,74.69,-0.7400000095367432,6529777152.0,3441.2397939947605,33.0,-0.00823049433529377,557056.0,734.7558090686798,0.003118452848866582,0.02215576171875,2.2895898818969727,-0.02427445724606514,0.03695603087544441,-0.022895898669958115,-0.0013785571791231632,0.0,0.041979480534791946,0.2889874279499054,0.8105496761563354,-0.2897283434867859,0.5688614249229431,-0.24774882197380066,0.6639437675476074,4.761074781417847,2.778780460357666,,,,,,
8512072000.0,76.97,-0.9900000095367432,6529777152.0,3352.532978745306,34.0,-0.00679837167263031,573440.0,739.6428601741791,0.0017095428192988038,0.013671875,2.2768056392669678,-0.023244746029376984,0.021728044375777245,-0.022768056020140648,-0.00047669047489762306,0.0,0.01694381609559059,0.2201199233531952,0.8872402545871036,-0.2115977257490158,0.601998507976532,-0.19465389847755432,0.6555145382881165,4.887051105499268,2.929117441177368,,,,,,
8512072000.0,74.88,-0.7599999904632568,6529777152.0,3514.1445772633933,35.0,-0.004278208594769239,589824.0,744.3051612377167,0.0014649579534307122,0.008056640625,2.3323416709899902,-0.02355290576815605,0.02021193876862526,-0.023323414847254753,-0.00022949231788516045,0.0,0.018640894442796707,0.20764850080013275,0.8879097804081624,-0.17489148676395416,0.5769864320755005,-0.15625059604644775,0.620218813419342,4.662301063537598,2.7612452507019043,,,,,,
8512072000.0,75.78,-1.2300000190734863,6529777152.0,3520.5544534328333,36.0,-0.006655458360910416,606208.0,748.9589736461639,0.001793233910575509,0.01348876953125,2.357734203338623,-0.024661092087626457,0.02061796560883522,-0.023577339947223663,-0.0010837512090802193,0.0,0.0153886117041111,0.21181745827198029,0.9163709086990139,-0.2265734076499939,0.6925923824310303,-0.2111847996711731,0.7324585914611816,4.653812408447266,2.759856939315796,,,,,,
8512072000.0,73.94,-0.6399999856948853,6529777152.0,3552.334092328306,37.0,-0.004771681968122721,622592.0,753.5711524486542,0.003983138594776392,0.033447265625,2.3654356002807617,-0.02358797751367092,0.02013886533677578,-0.023654352873563766,6.637698970735073e-05,0.0,0.012402061372995377,0.21546950936317444,0.9081785897812232,-0.20348119735717773,0.6944393515586853,-0.19107913970947266,0.7110723853111267,4.612178802490234,2.7623441219329834,,,,,,
8512072000.0,73.07,-0.12999999523162842,6529777152.0,3529.89244974809,38.0,-0.002901193220168352,638976.0,758.2126536369324,0.004981016740202904,0.06365966796875,2.3028132915496826,-0.020732998847961426,0.016257615759968758,-0.02302813157439232,0.0022951336577534676,0.0,-0.005072505678981543,0.18605129420757294,0.9003436404366084,-0.12246687710285187,0.5480082631111145,-0.12753938138484955,0.5893592834472656,4.641501188278198,2.7569031715393066,,,,,,
8512072000.0,73.74,-0.8700000047683716,6529777152.0,3476.512932630464,39.0,-0.0045043351128697395,655360.0,762.9254219532013,0.006577583029866219,0.06396484375,2.2724647521972656,-0.021635066717863083,0.022054966539144516,-0.02272464707493782,0.0010895798914134502,0.0,0.011808687821030617,0.21657638251781464,0.9139151621228133,-0.20218238234519958,0.7186809182167053,-0.19037368893623352,0.7381554245948792,4.712768316268921,2.7645819187164307,,,,,,
8512072000.0,78.57,-0.7400000095367432,6529777152.0,3594.782709423843,40.0,-0.003745115827769041,671744.0,767.4831383228302,0.0072645084001123905,0.07659912109375,2.355212688446045,-0.02232382819056511,0.02141958847641945,-0.023552129045128822,0.001228300272487104,0.0,-0.009340422227978706,0.21161167323589325,0.9101100556543298,-0.1576072871685028,0.6542773842811584,-0.16694772243499756,0.7058038711547852,4.557716369628906,2.768005847930908,,,,,,
8512072000.0,74.55,-0.3400000035762787,6529777152.0,3511.577395816449,41.0,-0.0018331203609704971,688128.0,772.1488478183746,0.006400024052709341,0.06671142578125,2.339510440826416,-0.020451487973332405,0.024150259792804718,-0.023395102471113205,0.0029436144977808,0.0,0.02402665466070175,0.22341832518577576,0.8893363523370494,-0.14937670528888702,0.661637008190155,-0.12535004317760468,0.6716086864471436,4.665709495544434,2.7672371864318848,,,,,,
8512072000.0,77.9,-0.029999999329447746,6529777152.0,3432.5460962682664,42.0,-0.0010867281816899776,704512.0,776.9219810962677,0.002200871706008911,0.0185546875,2.4065613746643066,-0.023811839520931244,0.024818124249577522,-0.024065613746643066,0.00025377399288117886,0.0,0.012964216060936451,0.2290939837694168,0.8000867644431195,-0.05458279699087143,0.47627556324005127,-0.04161858558654785,0.5123809576034546,4.773133277893066,2.7695558071136475,,,,,,
8512072000.0,75.41,-0.3199999928474426,6529777152.0,3560.180709351721,43.0,-0.0012591691920533776,720896.0,781.5239946842194,0.005246538668870926,0.0494384765625,2.430683135986328,-0.021868640556931496,0.02824993245303631,-0.024306830018758774,0.0024381927214562893,0.0,0.013174010440707207,0.2389952689409256,0.8069463302917361,-0.06455221772193909,0.5093219876289368,-0.05137820541858673,0.5439391136169434,4.60201358795166,2.779416561126709,,,,,,
8512072000.0,76.18,0.2800000011920929,6529777152.0,3422.838522826726,44.0,0.0009335543727502227,737280.0,786.3106651306152,0.006197614595293999,0.06005859375,2.367321491241455,-0.02054731734097004,0.01979641243815422,-0.02367321215569973,0.003125895047560334,0.0,0.01181047037243843,0.20029331743717194,0.8127529217256856,-0.005947385914623737,0.40872880816459656,0.005863083526492119,0.46286991238594055,4.786670446395874,2.7796151638031006,,,,,,
8512072000.0,79.68,0.1599999964237213,6529777152.0,3455.6873234899467,45.0,0.0009390868945047259,753664.0,791.051834821701,0.006337958853691816,0.0594482421875,2.4384264945983887,-0.022894589230418205,0.01874886080622673,-0.024384265765547752,0.0014896744396537542,0.0,0.014788973145186901,0.19569312036037445,0.8652336281264097,0.0006149320397526026,0.4913657307624817,0.015403905883431435,0.5330706834793091,4.741169691085815,2.77184796333313,,,,,,
8512072000.0,80.88,0.3199999928474426,6529777152.0,3497.8071979943447,46.0,0.002397330477833748,770048.0,795.735912322998,0.0020812898874282837,0.01788330078125,2.455143928527832,-0.02174007147550583,0.023786082863807678,-0.02455143816769123,0.002811366692185402,0.0,0.02476689964532852,0.21279911696910858,0.7500448248296547,0.026491206139326096,0.39856359362602234,0.05125810205936432,0.4256363809108734,4.684077501296997,2.766693353652954,,,,,,
8512072000.0,75.43,0.23999999463558197,6529777152.0,3493.631330831511,47.0,0.001324814511463046,786432.0,800.4255886077881,0.006101587787270546,0.065673828125,2.407331943511963,-0.02361352927982807,0.015889672562479973,-0.024073317646980286,0.00045978929847478867,0.0,0.004941305611282587,0.1828911304473877,0.8182960715314643,0.06953318417072296,0.37327152490615845,0.07447449862957001,0.42905253171920776,4.689676284790039,2.7758877277374268,,,,,,
8512072000.0,76.23,0.38999998569488525,6529777152.0,3540.1737169052153,48.0,0.002872002311050892,802816.0,805.053610086441,0.003174293553456664,0.03228759765625,2.396434783935547,-0.022793855518102646,0.015098091214895248,-0.023964351043105125,0.0011704964563250542,0.0,0.010808557271957397,0.1784997284412384,0.8343840326124603,0.07203872501850128,0.41998204588890076,0.08284728229045868,0.438618004322052,4.628021478652954,2.773873805999756,,,,,,
8512072000.0,81.1,0.550000011920929,6529777152.0,3516.936709242976,49.0,0.0034389595966786146,819200.0,809.7122097015381,0.005897944793105125,0.0623779296875,2.404371976852417,-0.024173282086849213,0.022333692759275436,-0.024043720215559006,-0.0001295618712902069,0.0,0.015760812908411026,0.21244341135025024,0.7499133849947248,0.10746166110038757,0.38585716485977173,0.1232224628329277,0.4248132109642029,4.658599615097046,2.7734017372131348,,,,,,
8512072000.0,84.15,0.5699999928474426,6529777152.0,3495.237333406575,50.0,0.003666570410132408,835584.0,814.3997311592102,0.0058579412288963795,0.0595703125,2.3621749877929688,-0.0214848592877388,0.02010173536837101,-0.023621749132871628,0.0021368907764554024,0.0,0.014999772422015667,0.20458926260471344,0.7138749677074354,0.1400771141052246,0.36526983976364136,0.15507687628269196,0.3824766278266907,4.687521457672119,2.7703471183776855,,,,,,
8512072000.0,84.36,0.6100000143051147,6529777152.0,3477.406615006814,51.0,0.0042086499743163586,851968.0,819.1112883090973,0.007051735185086727,0.0843505859375,2.314830780029297,-0.021008402109146118,0.022954432293772697,-0.023148303851485252,0.0021399054676294327,0.0,0.006081654690206051,0.21260777115821838,0.7599209263496136,0.17455700039863586,0.37222304940223694,0.1806386411190033,0.4339123070240021,4.711557149887085,2.777449607849121,,,,,,
8512072000.0,87.22,0.699999988079071,6529777152.0,3582.3471066384027,52.0,0.004544095601886511,868352.0,823.6848261356354,0.004129513166844845,0.031982421875,2.2720303535461426,-0.02189851552248001,0.02315249666571617,-0.022720303386449814,0.0008217897266149521,0.0,0.015450304374098778,0.2103876769542694,0.5673315793045279,0.17528435587882996,0.2643020749092102,0.1907346546649933,0.31984734535217285,4.573537826538086,2.7802045345306396,,,,,,
8512072000.0,102.01,0.7200000286102295,6529777152.0,3623.8446329118156,53.0,0.004078091122210026,884736.0,828.205991268158,0.007945551536977291,0.0906982421875,2.2716503143310547,-0.01983647234737873,0.021861732006072998,-0.022716503590345383,0.0028800293803215027,0.0,0.0002158528659492731,0.20952893793582916,0.6619749913950336,0.18111252784729004,0.310117244720459,0.18132838606834412,0.36038738489151,4.521165132522583,2.774634838104248,,,,,,
8512072000.0,99.35,0.6200000047683716,6529777152.0,3410.0980130767734,54.0,0.004166699945926666,901120.0,833.0105452537537,0.011320801451802254,0.06695556640625,2.2252941131591797,-0.01769806444644928,0.030076636001467705,-0.022252939641475677,0.004554877057671547,0.0,0.00479166628792882,0.24563942849636078,0.6189604660863826,0.19175031781196594,0.28521499037742615,0.19654199481010437,0.3979358375072479,4.804553985595703,2.802321672439575,,,,,,
8512072000.0,96.73,0.8399999737739563,6529777152.0,3468.939691024762,55.0,0.003938653971999884,917504.0,837.7336022853851,0.006418039556592703,0.06756591796875,2.2299671173095703,-0.02036779187619686,0.028195271268486977,-0.022299671545624733,0.0019318783888593316,0.0,0.0002541437279433012,0.23906613886356354,0.7146072058525805,0.16403257846832275,0.35838329792022705,0.16428671777248383,0.44750362634658813,4.72305703163147,2.7712888717651367,,,,,,
8512072000.0,89.33,0.47999998927116394,6529777152.0,3512.1800662228843,56.0,0.0043495045974850655,933888.0,842.3985111713409,0.005422897171229124,0.0491943359375,2.1721837520599365,-0.01849580742418766,0.021486390382051468,-0.021721838042140007,0.0032260329462587833,0.0,0.010700641199946404,0.20087240636348724,0.834353058762494,0.12347225844860077,0.42896854877471924,0.13417290151119232,0.4935470521450043,4.6649088859558105,2.894132137298584,,,,,,
8512072000.0,88.7,1.0299999713897705,6529777152.0,3562.11639303941,57.0,0.006480647251009941,950272.0,846.9980239868164,0.004145719110965729,0.0391845703125,2.286397933959961,-0.021431904286146164,0.016095701605081558,-0.022863978520035744,0.0014320770278573036,0.0,0.014852955006062984,0.171892911195755,0.8332599640164093,0.26760032773017883,0.3975730836391449,0.2824532985687256,0.4209572970867157,4.599512815475464,2.766437292098999,,,,,,
8512072000.0,99.19,0.7200000286102295,6529777152.0,3379.0192841095836,58.0,0.00406643608585,966656.0,851.8467681407928,0.0040509505197405815,0.03594970703125,2.2874488830566406,-0.02055162936449051,0.023635923862457275,-0.022874489426612854,0.002322855871170759,0.0,-0.0070320675149559975,0.21909965574741364,0.7435532696283248,0.22932583093643188,0.3510369062423706,0.22229376435279846,0.4326563775539398,4.84874415397644,2.9103782176971436,,,,,,
8512072000.0,89.58,0.75,6529777152.0,3442.3740707911184,59.0,0.005060979165136814,983040.0,856.6062741279602,0.0037508178502321243,0.02874755859375,2.2812445163726807,-0.020344451069831848,0.023561758920550346,-0.02281244471669197,0.0024679899215698242,0.0,-0.0037859901785850525,0.21631281077861786,0.7675638137822194,0.3024515211582184,0.39387255907058716,0.2986655533313751,0.44867345690727234,4.759505987167358,2.7706267833709717,,,,,,
8512072000.0,100.62,1.1799999475479126,6529777152.0,3418.2332064584807,60.0,0.006607186049222946,999424.0,861.3993935585022,0.0027805028948932886,0.02593994140625,2.2495250701904297,-0.02043398842215538,0.013539044186472893,-0.022495251148939133,0.0020612627267837524,0.0,0.02556334063410759,0.16844965517520905,0.8153230006417759,0.3273311257362366,0.3611312806606293,0.3528944253921509,0.39197981357574463,4.793119430541992,2.774052143096924,,,,,,
8512072000.0,92.78,0.8700000047683716,6529777152.0,3487.1084463463785,61.0,0.005654745269566774,1015808.0,866.0978422164917,0.006480079144239426,0.06158447265625,2.2529146671295166,-0.01925487443804741,0.02209358662366867,-0.022529147565364838,0.0032742731273174286,0.0,0.009893452748656273,0.2063869833946228,0.7249232480567156,0.2815631926059723,0.34531375765800476,0.2914566397666931,0.3935095965862274,4.698448657989502,2.7809829711914062,,,,,,
8512072000.0,105.46,0.8500000238418579,6529777152.0,3466.1625528622817,62.0,0.005350499879568815,1032192.0,870.8246834278107,0.006048246752470732,0.05670166015625,2.31044864654541,-0.020042642951011658,0.023701416328549385,-0.023104486986994743,0.0030618414748460054,0.0,-0.007253273855894804,0.20606005191802979,0.8209718892082298,0.29844096302986145,0.4219937324523926,0.29118767380714417,0.48700475692749023,4.72684121131897,2.7818551063537598,,,,,,
8512204000.0,95.06,0.8999999761581421,6529777152.0,3551.87433794667,63.0,0.005043904762715101,1048576.0,875.437459230423,0.009456505067646503,0.0703125,2.236328125,-0.0200204998254776,0.02646646648645401,-0.02236327901482582,0.0023427847772836685,0.0,-0.026483166962862015,0.22220250964164734,0.8199198986259012,0.35201263427734375,0.46624237298965454,0.32552945613861084,0.5236198902130127,4.612775802612305,2.780362844467163,,,,,,
,,,,,,,,,,,,,,,,,,,,,,,,,,0.012789069674909115,0.0748707726597786,0.058283135294914246,0.012789069674909115,0.0748707726597786,0.058283135294914246
,,,,,,,,,,,,,,,,,,,,,,,,,,0.003841985482722521,0.05283336341381073,0.04941347986459732,0.003841985482722521,0.05283336341381073,0.04941347986459732
,,,,,,,,,,,,,,,,,,,,,,,,,,0.0033403115812689066,0.048876695334911346,0.046741023659706116,0.0033403115812689066,0.048876695334911346,0.046741023659706116
,,,,,,,,,,,,,,,,,,,,,,,,,,0.0028898390009999275,0.046498872339725494,0.045118942856788635,0.0028898390009999275,0.046498872339725494,0.045118942856788635
,,,,,,,,,,,,,,,,,,,,,,,,,,0.0029085190035402775,0.04581424966454506,0.044618796557188034,0.0029085190035402775,0.04581424966454506,0.044618796557188034
,,,,,,,,,,,,,,,,,,,,,,,,,,0.0025796943809837103,0.04400677978992462,0.04296715185046196,0.0025796943809837103,0.04400677978992462,0.04296715185046196
8512468000.0,90.3,0.9700000286102295,6327188480.0,28.189670332942935,64.0,0.006060722284018993,1064960.0,1456.6432628631592,0.0025344144087284803,0.02239990234375,2.32974910736084,-0.02214254066348076,0.03176066651940346,-0.023297488689422607,0.0011549480259418488,0.0,0.05059428885579109,0.25890207290649414,0.7334076051658704,0.1768055558204651,0.4225447475910187,0.22739985585212708,0.5014315843582153,581.2058036327362,3.030482292175293,,,,,,
8512468000.0,105.62,1.1299999952316284,6529777152.0,3444.671632672498,65.0,0.006491332780569792,1081344.0,1461.3995943069458,0.00223458930850029,0.01983642578125,2.3287477493286133,-0.023434985429048538,0.03099692612886429,-0.02328747883439064,-0.00014750473201274872,0.0,0.04628866910934448,0.2499215006828308,0.6974848069098103,0.2899090051651001,0.4026208817958832,0.33619770407676697,0.45439133048057556,4.756331443786621,2.835716724395752,,,,,,
8512468000.0,104.71,1.0399999618530273,6529777152.0,3376.294787761015,66.0,0.005438661202788353,1097728.0,1466.2522511482239,0.0017524613067507744,0.0130615234375,2.3026952743530273,-0.021922055631875992,0.028491385281085968,-0.023026950657367706,0.001104895956814289,0.0,0.009878160431981087,0.24104227125644684,0.6857312016453849,0.30224353075027466,0.36728426814079285,0.3121216893196106,0.42997434735298157,4.852656841278076,2.8078694343566895,,,,,,
8512468000.0,89.41,0.9900000095367432,6529777152.0,3570.2680410571484,67.0,0.006733817048370838,1114112.0,1470.8412623405457,0.002920951694250107,0.0284423828125,2.3166563510894775,-0.023840878158807755,0.02826034650206566,-0.023166565224528313,-0.0006743106059730053,0.0,0.020511219277977943,0.24122583866119385,0.7554106313875593,0.32622063159942627,0.41845184564590454,0.34673184156417847,0.48775869607925415,4.589011192321777,2.764188051223755,,,,,,
8512468000.0,101.19,0.9800000190734863,6529777152.0,3515.8177053057225,68.0,0.006907808594405651,1130496.0,1475.5013446807861,0.002872179029509425,0.0255126953125,2.329594373703003,-0.022778494283556938,0.031737491488456726,-0.023295942693948746,0.0005174465477466583,0.0,0.009564753621816635,0.253875195980072,0.7575592369882603,0.35017073154449463,0.4393487870693207,0.35973548889160156,0.5156053900718689,4.6600823402404785,2.764500379562378,,,,,,
8512468000.0,100.35,1.2999999523162842,6529777152.0,3453.3325307657738,69.0,0.008511459454894066,1146880.0,1480.2457473278046,0.005776056554168463,0.0556640625,2.326319932937622,-0.022597700357437134,0.028905848041176796,-0.023263201117515564,0.0006654970347881317,0.0,0.03798361122608185,0.2421400547027588,0.7389475278965019,0.38941365480422974,0.4261825680732727,0.4273972511291504,0.47391751408576965,4.744402647018433,2.759612560272217,,,,,,
8512468000.0,94.67,1.340000033378601,6529777152.0,3418.3826686679017,70.0,0.008616629056632519,1163264.0,1485.0386571884155,0.0042127217166125774,0.04010009765625,2.3281190395355225,-0.021505793556571007,0.026395419612526894,-0.023281188681721687,0.0017753969877958298,0.0,0.02176663838326931,0.23078550398349762,0.8086864553995254,0.40359431505203247,0.4448712468147278,0.42536094784736633,0.5276374816894531,4.792909860610962,2.768526315689087,,,,,,
8512468000.0,96.67,1.2100000381469727,6529777152.0,3540.480865878794,71.0,0.007393172476440668,1179648.0,1489.6662771701813,0.005181551445275545,0.0498046875,2.2809739112854004,-0.021922094747424126,0.035017047077417374,-0.02280973643064499,0.0008876417996361852,0.0,0.0013236396480351686,0.2663251757621765,0.7662423484661792,0.43643736839294434,0.46910619735717773,0.43776097893714905,0.5508447885513306,4.627619981765747,2.770045757293701,,,,,,
8512468000.0,105.45,1.3899999856948853,6529777152.0,3535.2745734192144,72.0,0.008175463415682316,1196032.0,1494.300712108612,0.00416977982968092,0.03955078125,2.26450252532959,-0.021285876631736755,0.03805167227983475,-0.022645024582743645,0.0013591507449746132,0.0,0.006022939458489418,0.28109586238861084,0.7794976545515057,0.4542694091796875,0.5190320611000061,0.46029236912727356,0.5986153483390808,4.634434938430786,2.77518630027771,,,,,,
8512468000.0,98.45,1.2799999713897705,6529777152.0,3538.4882649458114,73.0,0.007970856502652168,1212416.0,1498.9309380054474,0.007968947291374207,0.04705810546875,2.2747695446014404,-0.021767456084489822,0.047918640077114105,-0.022747697308659554,0.0009802444837987423,0.0,0.014381777495145798,0.3098537027835846,0.7193817902696875,0.47946804761886597,0.498946875333786,0.49384981393814087,0.5849230289459229,4.630225896835327,2.7758519649505615,,,,,,
8512468000.0,99.53,1.409999966621399,6529777152.0,3576.2298151071986,74.0,0.008645550347864628,1228800.0,1503.5122990608215,0.0035420889034867287,0.036376953125,2.290910005569458,-0.020925506949424744,0.02888174168765545,-0.022909101098775864,0.0019835932180285454,0.0,0.022414177656173706,0.24045029282569885,0.7771584960366273,0.45702606439590454,0.44246557354927063,0.47944021224975586,0.5093628168106079,4.5813610553741455,2.77119517326355,,,,,,
8512468000.0,110.09,1.3899999856948853,6529777152.0,3487.6923028044416,75.0,0.00843738578259945,1245184.0,1508.2099611759186,0.004425663035362959,0.04547119140625,2.2989041805267334,-0.022489961236715317,0.0335967130959034,-0.022989042103290558,0.0004990827292203903,0.0,0.01683654449880123,0.2588149607181549,0.7817144899305897,0.48949477076530457,0.48055940866470337,0.5063313245773315,0.5539580583572388,4.697662115097046,2.770087480545044,,,,,,
8512468000.0,117.54,1.659999966621399,6529777152.0,3470.153109855522,76.0,0.00818081945180893,1261568.0,1512.9313666820526,0.005900382064282894,0.04718017578125,2.308617115020752,-0.021759986877441406,0.07834035158157349,-0.023086169734597206,0.00132618541829288,0.0,0.016872525215148926,0.39786574244499207,0.6668202917409125,0.5259660482406616,0.530358076095581,0.5428385734558105,0.6892825961112976,4.721405506134033,2.769287109375,,,,,,
8512468000.0,105.69,1.2999999523162842,6529777152.0,3498.5414013679238,77.0,0.00885649025440216,1277952.0,1517.614461183548,0.02137390710413456,0.0926513671875,2.3079161643981934,-0.014853431843221188,0.04660481959581375,-0.02307916060090065,0.008225725963711739,0.0,0.007638463284820318,0.3057705760002136,0.7655401937927298,0.547582745552063,0.5387817025184631,0.5552212595939636,0.6314828395843506,4.683094501495361,2.7692601680755615,,,,,,
8512468000.0,112.29,1.649999976158142,6529777152.0,3446.298775616809,78.0,0.009301237761974335,1294336.0,1522.368546962738,0.016893940046429634,0.09844970703125,2.2580223083496094,-0.01579711213707924,0.038821134716272354,-0.02258022129535675,0.006783113814890385,0.0,0.04479530453681946,0.27013224363327026,0.7990239081523657,0.4705284535884857,0.4970351755619049,0.5153237581253052,0.6025654077529907,4.7540857791900635,2.770557403564453,,,,,,
8512468000.0,115.44,2.059999942779541,6529777152.0,3488.318674753685,79.0,0.010941306129097939,1310720.0,1527.0653655529022,0.007665096316486597,0.0675048828125,2.3143515586853027,-0.02073202282190323,0.051446594297885895,-0.02314351685345173,0.002411490771919489,0.0,0.05792078375816345,0.31788983941078186,0.7581056847823338,0.6109718084335327,0.5564754605293274,0.6688926219940186,0.6463441252708435,4.696818590164185,2.7705295085906982,,,,,,
8512468000.0,128.56,2.369999885559082,6529777152.0,3386.7207568333724,80.0,0.010798699222505093,1327104.0,1531.903083562851,0.0025866441428661346,0.02301025390625,2.291205883026123,-0.020704247057437897,0.06851779669523239,-0.02291206084191799,0.0022078128531575203,0.0,0.016077740117907524,0.3733038902282715,0.7163194202778149,0.6944624185562134,0.5613040924072266,0.7105401754379272,0.7008864283561707,4.8377180099487305,2.770599365234375,,,,,,
8512468000.0,116.84,1.6399999856948853,6529777152.0,3551.526296378987,81.0,0.009342196397483349,1343488.0,1536.5163114070892,0.007036969065666199,0.05731201171875,2.302443504333496,-0.02183069847524166,0.06005902960896492,-0.023024432361125946,0.001193733885884285,0.0,0.01778756082057953,0.3460761308670044,0.7700520875438691,0.7099590301513672,0.603098452091217,0.7277465462684631,0.7217001914978027,4.613227844238281,2.7726893424987793,,,,,,
8512468000.0,143.46,2.5999999046325684,6529777152.0,3569.8791097364365,82.0,0.011665476486086845,1359872.0,1541.1058225631714,0.00570253748446703,0.05621337890625,2.275139570236206,-0.019028328359127045,0.08294783532619476,-0.022751396521925926,0.003723064437508583,0.0,0.06580013036727905,0.40408816933631897,0.7121178202417238,0.761813223361969,0.6317768096923828,0.8276132941246033,0.7531278729438782,4.589511156082153,2.7646164894104004,,,,,,
8512468000.0,142.99,2.490000009536743,6529777152.0,3378.7981523458193,83.0,0.011015128344297409,1376256.0,1545.9548840522766,0.0044317105785012245,0.04205322265625,2.293231725692749,-0.021218637004494667,0.07838550955057144,-0.02293231524527073,0.0017136791720986366,0.0,0.06764731556177139,0.3876537084579468,0.7354340954723864,0.7715746760368347,0.5886730551719666,0.8392219543457031,0.753662645816803,4.849061489105225,2.7750182151794434,,,,,,
8512468000.0,148.32,3.1700000762939453,6529777152.0,3527.040976706263,84.0,0.01246965117752552,1392640.0,1550.6001377105713,0.00455218693241477,0.04022216796875,2.251626491546631,-0.02001444436609745,0.12279563397169113,-0.022516263648867607,0.002501809038221836,0.0,0.09950979053974152,0.5147552490234375,0.6678484087656679,0.6668105125427246,0.6251620054244995,0.7663202881813049,0.8931668400764465,4.645253658294678,2.7850875854492188,,,,,,
8512468000.0,139.32,2.5399999618530273,6529777152.0,3495.874777137558,85.0,0.01293067168444395,1409024.0,1555.2868044376373,0.006524469703435898,0.06256103515625,2.3175690174102783,-0.02035544067621231,0.1120704934000969,-0.023175690323114395,0.002820247085765004,0.0,0.07312216609716415,0.45944175124168396,0.7893403381034297,1.0139405727386475,0.8139434456825256,1.0870627164840698,1.0010130405426025,4.68666672706604,2.8285744190216064,,,,,,
8512468000.0,148.81,3.4100000858306885,6529777152.0,3414.2828975518532,86.0,0.01427297480404377,1425408.0,1560.0854694843292,0.004652782343327999,0.03900146484375,2.276456117630005,-0.019428661093115807,0.10073576867580414,-0.02276455983519554,0.003335902700200677,0.0,0.07618781924247742,0.4446721076965332,0.822513745871835,0.926963210105896,0.8408166766166687,1.0031509399414062,1.0554980039596558,4.7986650466918945,2.775965690612793,,,,,,
8512468000.0,137.26,2.990000009536743,6529777152.0,3473.3379221638857,87.0,0.012859978713095188,1441792.0,1564.802545785904,0.005656242370605469,0.05743408203125,2.3016304969787598,-0.021232839673757553,0.11547431349754333,-0.023016303777694702,0.0017834627069532871,0.0,0.07193686068058014,0.466627299785614,0.8029622532313287,0.9245270490646362,0.9009003043174744,0.9964638948440552,1.0512244701385498,4.717076301574707,2.7715835571289062,,,,,,
8512468000.0,152.14,4.090000152587891,6529777152.0,3442.6239534909587,88.0,0.015531153418123722,1458176.0,1569.5617063045502,0.0028496570885181427,0.02496337890625,2.3010005950927734,-0.021250080317258835,0.12592820823192596,-0.023010004311800003,0.0017599244602024555,0.0,0.1505340337753296,0.5121913552284241,0.868853494596058,0.9146047830581665,1.1807618141174316,1.0651386976242065,1.4143401384353638,4.75916051864624,2.7994794845581055,,,,,,
8512468000.0,159.65,3.809999942779541,6529777152.0,3448.4877089984134,89.0,0.015440138056874275,1474560.0,1574.3127744197845,0.007812668569386005,0.0634765625,2.3467392921447754,-0.01885262504220009,0.15088386833667755,-0.023467395454645157,0.0046147629618644714,0.0,0.13792119920253754,0.44919198751449585,0.849694877063728,0.8086366653442383,0.9565892815589905,0.9465578198432922,1.1586309671401978,4.751068115234375,2.778954267501831,,,,,,
8512468000.0,146.98,3.059999942779541,6529777152.0,3408.755266869573,90.0,0.01326716784387827,1490944.0,1579.1192209720612,0.0071869706735014915,0.0736083984375,2.280102014541626,-0.019742192700505257,0.08919437229633331,-0.022801019251346588,0.00305883027613163,0.0,0.037496235221624374,0.4170811176300049,0.8902655375268478,1.163280963897705,1.128127932548523,1.2007771730422974,1.259067416191101,4.806446552276611,2.9078643321990967,,,,,,
8512468000.0,146.76,3.359999895095825,6529777152.0,3483.966167551252,91.0,0.013070971705019474,1507328.0,1583.8219072818756,0.0037503857165575027,0.03515625,2.2989540100097656,-0.021850328892469406,0.08124475926160812,-0.022989539429545403,0.0011392137967050076,0.0,0.06254252791404724,0.38092708587646484,0.8813819063426903,0.948778510093689,0.9847643971443176,1.0113210678100586,1.1060287952423096,4.702686309814453,2.8579554557800293,,,,,,
8512468000.0,154.42,3.140000104904175,6529777152.0,3446.6341037511975,92.0,0.012717288918793201,1523712.0,1588.5755305290222,0.004313373938202858,0.041748046875,2.277343511581421,-0.0220321174710989,0.09422406554222107,-0.02277343161404133,0.0007413167040795088,0.0,0.08308026194572449,0.43594369292259216,0.8776908375387394,1.082667589187622,1.1096851825714111,1.1657477617263794,1.2465250492095947,4.7536232471466064,2.7768187522888184,,,,,,
8512468000.0,155.55,4.099999904632568,6529777152.0,3453.7174830550694,93.0,0.015175901353359222,1540096.0,1593.3194043636322,0.006347752176225185,0.06341552734375,2.2597475051879883,-0.020997267216444016,0.1907212883234024,-0.022597473114728928,0.0016002077609300613,0.0,0.14304298162460327,0.5276166796684265,0.8861339808628549,1.185654878616333,1.3616392612457275,1.328697919845581,1.5635849237442017,4.743873834609985,2.8133106231689453,,,,,,
8512468000.0,172.24,4.400000095367432,6529777152.0,3477.3453795863597,94.0,0.015869880095124245,1556480.0,1598.0310444831848,0.007070474326610565,0.0689697265625,2.278801202774048,-0.019917747005820274,0.14093711972236633,-0.02278801053762436,0.002870265394449234,0.0,0.11024775356054306,0.4694809913635254,0.9012914459551022,1.1049034595489502,1.3744699954986572,1.215151309967041,1.4943097829818726,4.711640119552612,2.776529550552368,,,,,,
8512696000.0,171.08,4.519999980926514,6529777152.0,3366.4546957820185,95.0,0.015482308343052864,1572864.0,1602.8978855609894,0.005974565166980028,0.06134033203125,2.26440167427063,-0.01864030957221985,0.2571233808994293,-0.02264401689171791,0.004003711044788361,0.0,0.08008712530136108,0.6990415453910828,0.8526100959678063,1.6240389347076416,1.7265928983688354,1.7041261196136475,1.8208290338516235,4.866841077804565,2.8606081008911133,,,,,,
,,,,,,,,,,,,,,,,,,,,,,,,,,0.028252430260181427,0.2168039232492447,0.21071693301200867,0.028252430260181427,0.2168039232492447,0.21071693301200867
,,,,,,,,,,,,,,,,,,,,,,,,,,0.013904770836234093,0.1580885946750641,0.15714755654335022,0.013904770836234093,0.1580885946750641,0.15714755654335022
,,,,,,,,,,,,,,,,,,,,,,,,,,0.012783966958522797,0.1519431471824646,0.14930360019207,0.012783966958522797,0.1519431471824646,0.14930360019207
,,,,,,,,,,,,,,,,,,,,,,,,,,0.011185184121131897,0.14131425321102142,0.14158223569393158,0.011185184121131897,0.14131425321102142,0.14158223569393158
,,,,,,,,,,,,,,,,,,,,,,,,,,0.01006978191435337,0.13995642960071564,0.1392996907234192,0.01006978191435337,0.13995642960071564,0.1392996907234192
,,,,,,,,,,,,,,,,,,,,,,,,,,0.010275589302182198,0.13300460577011108,0.13303793966770172,0.010275589302182198,0.13300460577011108,0.13303793966770172
8512960000.0,172.55,4.309999942779541,6327188480.0,28.12686100196904,96.0,0.017076078802347183,1589248.0,2185.4015641212463,0.0033253896981477737,0.03070068359375,2.3157799243927,-0.020771503448486328,0.09849362075328827,-0.02315780147910118,0.0023863008245825768,0.0,0.1681896150112152,0.45252788066864014,0.8551155900458701,0.8188374042510986,0.9612821936607361,0.9870269894599915,1.1888704299926758,582.503678560257,2.772775888442993,,,,,,
8512960000.0,148.17,4.110000133514404,6529777152.0,3412.6048308093423,97.0,0.015552866272628307,1605632.0,2190.2025887966156,0.00407265592366457,0.04888916015625,2.29636287689209,-0.020945651456713676,0.10801584273576736,-0.0229636300355196,0.002017976250499487,0.0,0.15524393320083618,0.4845542907714844,0.8763741078157073,1.0591280460357666,1.1893283128738403,1.2143720388412476,1.378122091293335,4.801024675369263,2.934363603591919,,,,,,
8512960000.0,160.15,4.090000152587891,6529777152.0,3476.4747678453987,98.0,0.01686427742242813,1622016.0,2194.915408849716,0.0026469265576452017,0.0234375,2.2997021675109863,-0.02120061032474041,0.16176384687423706,-0.022997021675109863,0.0017964038997888565,0.0,0.105324886739254,0.5791334509849548,0.8155863243706112,1.2673423290252686,1.214045524597168,1.3726673126220703,1.3485965728759766,4.712820053100586,2.7570743560791016,,,,,,
8512960000.0,178.35,4.03000020980835,6529777152.0,3618.61415900992,99.0,0.013628395274281502,1638400.0,2199.443109035492,0.004477269481867552,0.04327392578125,2.305598497390747,-0.02255619689822197,0.1584218591451645,-0.02305598370730877,0.0004997910000383854,0.0,0.10521501302719116,0.5711432099342346,0.8380832414794223,1.5001033544540405,1.3063949346542358,1.605318307876587,1.4193812608718872,4.527700185775757,2.7461907863616943,,,,,,
8512960000.0,184.57,5.480000019073486,6529777152.0,3551.7651086968826,100.0,0.019693192094564438,1654784.0,2204.056026697159,0.0031097219325602055,0.02801513671875,2.277343273162842,-0.02192266285419464,0.1664271354675293,-0.02277342975139618,0.0008507687598466873,0.0,0.09078458696603775,0.5966405868530273,0.8598980911126086,1.5891284942626953,1.4504510164260864,1.67991304397583,1.5940090417861938,4.61291766166687,2.758122682571411,,,,,,
8512960000.0,180.18,5.519999980926514,6529777152.0,3589.0273706680327,101.0,0.016642147675156593,1671168.0,2208.62105178833,0.002905571833252907,0.0281982421875,2.27923321723938,-0.02087198756635189,0.1663268357515335,-0.022792331874370575,0.0019203424453735352,0.0,0.11679169535636902,0.5994576215744019,0.8605600084935375,1.6008058786392212,1.4017912149429321,1.717597484588623,1.6053317785263062,4.565025091171265,2.7559123039245605,,,,,,
8512960000.0,203.0,6.099999904632568,6529777152.0,3447.009956226352,102.0,0.01768982596695423,1687552.0,2213.3741567134857,0.0022381385788321495,0.01934814453125,2.25829815864563,-0.022591404616832733,0.18148374557495117,-0.02258298173546791,-8.422881364822388e-06,0.0,0.11509503424167633,0.6235581040382385,0.8463665560498734,1.7958811521530151,1.4193980693817139,1.9109761714935303,1.590867519378662,4.75310492515564,2.740065097808838,,,,,,
8512960000.0,201.68,6.25,6529777152.0,3416.334865011737,103.0,0.01906774751842022,1703936.0,2218.169939517975,0.0023205499164760113,0.01934814453125,2.254257917404175,-0.020934734493494034,0.21178770065307617,-0.022542577236890793,0.0016078408807516098,0.0,0.15213368833065033,0.6574798226356506,0.8713159140368828,2.0566561222076416,1.6578608751296997,2.208789825439453,1.832821249961853,4.795782804489136,2.7651822566986084,,,,,,
8512960000.0,238.48,8.609999656677246,6529777152.0,3475.898528685258,104.0,0.02248596027493477,1720320.0,2222.883540868759,0.0029761246405541897,0.03045654296875,2.2520625591278076,-0.02121938019990921,0.2876072824001312,-0.022520624101161957,0.0013012448325753212,0.0,0.1815812885761261,0.766110897064209,0.8920357301340328,2.418369770050049,2.1727185249328613,2.5999510288238525,2.331587076187134,4.713601350784302,2.7594878673553467,,,,,,
8512960000.0,234.46,8.920000076293945,6529777152.0,3555.1946220546356,105.0,0.02021687850356102,1736704.0,2227.4920086860657,0.004823185969144106,0.0518798828125,2.2555909156799316,-0.020114660263061523,0.2986769676208496,-0.022555910050868988,0.0024412493221461773,0.0,0.13149333000183105,0.7459437251091003,0.8595249369037361,2.3473243713378906,1.835396409034729,2.478817939758301,1.990244746208191,4.6084678173065186,2.758800745010376,,,,,,
8512960000.0,242.09,8.699999809265137,6529777152.0,3553.5619111524156,106.0,0.019825581461191177,1753088.0,2232.102593898773,0.0038761640898883343,0.04046630859375,2.259660005569458,-0.020621638745069504,0.2775364816188812,-0.022596601396799088,0.0019749626517295837,0.0,0.10137060284614563,0.770560622215271,0.8955611795114223,2.845973491668701,2.275470495223999,2.9473438262939453,2.3843817710876465,4.6105852127075195,2.765897035598755,,,,,,
8512960000.0,238.21,8.760000228881836,6529777152.0,3554.8898801363944,107.0,0.020520653575658798,1769472.0,2236.7114567756653,0.0031090143602341413,0.027587890625,2.266242742538452,-0.021180786192417145,0.26130539178848267,-0.02266242541372776,0.001481642946600914,0.0,0.14659596979618073,0.7182062864303589,0.8720532526944944,2.6304750442504883,1.8185806274414062,2.777070999145508,2.0078651905059814,4.60886287689209,2.7517120838165283,,,,,,
8512960000.0,214.5,7.659999847412109,6529777152.0,3514.5629795865343,108.0,0.020702611654996872,1785856.0,2241.3732028007507,0.005982400383800268,0.0390625,2.257016658782959,-0.01988360285758972,0.28444844484329224,-0.022570166736841202,0.00268656387925148,0.0,0.13456273078918457,0.7755393385887146,0.8947884433819415,2.8312671184539795,2.2229771614074707,2.965829849243164,2.3909590244293213,4.661746025085449,2.760967493057251,,,,,,
8512960000.0,213.39,7.389999866485596,6529777152.0,3602.248210840061,109.0,0.01986664906144142,1802240.0,2245.921473503113,0.002963832812383771,0.02593994140625,2.2613182067871094,-0.020981788635253906,0.26211386919021606,-0.02261318266391754,0.0016313940286636353,0.0,0.09093399345874786,0.7053951621055603,0.8861451841822514,2.870213031768799,1.9753541946411133,2.961146831512451,2.090531587600708,4.5482707023620605,2.756291389465332,,,,,,
8512960000.0,240.78,8.3100004196167,6529777152.0,3404.492157371569,110.0,0.020037801936268806,1818624.0,2250.7339386940002,0.0032097049988806248,0.03009033203125,2.2830662727355957,-0.020551186054944992,0.2876383066177368,-0.02283066138625145,0.0022794771939516068,0.0,0.1026308536529541,0.7497865557670593,0.8621621469995002,2.876239061355591,1.8189325332641602,2.978869915008545,2.0195443630218506,4.812465190887451,2.766007661819458,,,,,,
8512960000.0,225.4,7.760000228881836,6529777152.0,3522.833705347474,111.0,0.021657239645719528,1835008.0,2255.384740114212,0.0035529346205294132,0.03668212890625,2.267286539077759,-0.021080350503325462,0.276206374168396,-0.0226728655397892,0.0015925155021250248,0.0,0.05304247885942459,0.7285788655281067,0.8940019780807551,2.7288403511047363,2.070524215698242,2.7818827629089355,2.23783278465271,4.650801420211792,2.7765157222747803,,,,,,
8512960000.0,211.76,7.949999809265137,6529777152.0,3639.513636946217,112.0,0.022010143846273422,1851392.0,2259.886440515518,0.002388001885265112,0.01934814453125,2.2483251094818115,-0.02158988267183304,0.30740997195243835,-0.022483251988887787,0.0008933674544095993,0.0,0.11025295406579971,0.7675184607505798,0.8977581290238643,3.3407130241394043,2.233485221862793,3.4509658813476562,2.4003493785858154,4.501700401306152,2.7620954513549805,,,,,,
8512960000.0,241.11,10.220000267028809,6529777152.0,3506.949586705498,113.0,0.02323736995458603,1867776.0,2264.5583069324493,0.0033451104536652565,0.0343017578125,2.253657817840576,-0.022234003990888596,0.3530501127243042,-0.02253657765686512,0.00030257366597652435,0.0,0.17613177001476288,0.8039016127586365,0.8918332255929027,3.355339288711548,2.3161144256591797,3.5314712524414062,2.444308280944824,4.671866416931152,2.779967784881592,,,,,,
8512960000.0,279.44,11.880000114440918,6529777152.0,3475.5553729425246,114.0,0.022568799555301666,1884160.0,2269.2723736763,0.003638383001089096,0.03778076171875,2.251481056213379,-0.020991459488868713,0.3926986753940582,-0.022514810785651207,0.001523355022072792,0.0,0.17172396183013916,0.8560633659362793,0.879172574467691,3.333141565322876,2.3930883407592773,3.5048656463623047,2.46276593208313,4.714066743850708,2.7609875202178955,,,,,,
8512960000.0,244.93,9.920000076293945,6529777152.0,3454.631090197274,115.0,0.02521054819226265,1900544.0,2274.014992952347,0.004286892246454954,0.0445556640625,2.228639602661133,-0.02074693702161312,0.3040632903575897,-0.022286396473646164,0.0015394613146781921,0.0,0.1109834834933281,0.7881529331207275,0.8945220190216262,3.620436906814575,2.277705430984497,3.7314202785491943,2.4267759323120117,4.742619276046753,2.7763242721557617,,,,,,
8512960000.0,237.01,10.34000015258789,6529777152.0,3466.2947300065225,116.0,0.023842500522732735,1916928.0,2278.74165391922,0.0044634523801505566,0.03973388671875,2.218801259994507,-0.02019122987985611,0.37663596868515015,-0.022188011556863785,0.001996781677007675,0.0,0.16221052408218384,0.850654661655426,0.8759537102233528,3.4988112449645996,2.301586866378784,3.6610217094421387,2.4152462482452393,4.726660966873169,2.7686593532562256,,,,,,
8512960000.0,272.18,11.930000305175781,6529777152.0,3360.9927767450395,117.0,0.025336535647511482,1933312.0,2283.616404056549,0.006142435595393181,0.0570068359375,2.2261953353881836,-0.017764832824468613,0.3459893465042114,-0.022261952981352806,0.004497120156884193,0.0,0.18843293190002441,0.8186405897140503,0.874801691988791,3.5424442291259766,2.1607279777526855,3.73087739944458,2.313631296157837,4.874750137329102,2.890734910964966,,,,,,
8512960000.0,289.8,13.819999694824219,6529777152.0,3480.0944745483234,118.0,0.025309935212135315,1949696.0,2288.3243222236633,0.0032309177331626415,0.02972412109375,2.2334282398223877,-0.020527521148324013,0.3364235758781433,-0.022334281355142593,0.0018067620694637299,0.0,0.17940928041934967,0.8109035491943359,0.8793367168356291,3.715595006942749,2.214339017868042,3.8950042724609375,2.3344337940216064,4.707918167114258,2.768465757369995,,,,,,
8512960000.0,295.24,13.970000267028809,6529777152.0,3651.755716938313,119.0,0.027456238865852356,1966080.0,2292.8109312057495,0.003344158409163356,0.034423828125,2.241118907928467,-0.020817307755351067,0.34825730323791504,-0.02241119183599949,0.001593882218003273,0.0,0.21837003529071808,0.8172873854637146,0.8810348468221102,3.8161227703094482,2.194897174835205,4.034492492675781,2.369544267654419,4.486608982086182,2.75649356842041,,,,,,
8512960000.0,300.24,14.449999809265137,6529777152.0,3565.7757401596527,120.0,0.026208389550447464,1982464.0,2297.405723810196,0.0026746666990220547,0.025390625,2.2391979694366455,-0.020755358040332794,0.3448530435562134,-0.02239198237657547,0.0016366224735975266,0.0,0.21135500073432922,0.8113908767700195,0.8657665885394598,3.8291854858398438,2.103909730911255,4.04054069519043,2.2146236896514893,4.594792604446411,2.7661187648773193,,,,,,
8512960000.0,292.64,14.479999542236328,6529777152.0,3502.5078257079304,121.0,0.027332061901688576,1998848.0,2302.0835149288177,0.0032521430402994156,0.0330810546875,2.233830451965332,-0.02081242948770523,0.35746830701828003,-0.022338304668664932,0.0015258733183145523,0.0,0.1632780134677887,0.8346740007400513,0.8729726157999836,4.061785697937012,2.1644716262817383,4.225063323974609,2.3418989181518555,4.677791118621826,2.785198450088501,,,,,,
8512960000.0,287.17,13.329999923706055,6529777152.0,3612.9992378574543,122.0,0.023108752444386482,2015232.0,2306.6182515621185,0.0045685190707445145,0.04400634765625,2.26501727104187,-0.02132248505949974,0.3207709491252899,-0.02265017479658127,0.001327691599726677,0.0,0.12472710758447647,0.7917425632476807,0.8825682575592687,4.290353775024414,2.1626458168029785,4.415080547332764,2.3104212284088135,4.534736633300781,2.761899709701538,,,,,,
8512960000.0,293.81,12.880000114440918,6529777152.0,3340.0126027139463,123.0,0.02659200131893158,2031616.0,2311.523622274399,0.0034393426030874252,0.03546142578125,2.272825241088867,-0.020871484652161598,0.3395238518714905,-0.022728249430656433,0.0018567643128335476,0.0,0.15628847479820251,0.804240882396698,0.8762796826645372,4.195896148681641,2.183973550796509,4.352185249328613,2.286471366882324,4.905370712280273,2.912177085876465,,,,,,
8512960000.0,312.31,14.550000190734863,6529777152.0,3466.0448957106964,124.0,0.02720850706100464,2048000.0,2316.2506239414215,0.003955739084631205,0.04010009765625,2.248018980026245,-0.02079734019935131,0.33375102281570435,-0.02248018980026245,0.001682850532233715,0.0,0.15024754405021667,0.7871934175491333,0.8695392543834279,4.164467811584473,2.0242841243743896,4.31471586227417,2.1794235706329346,4.727001667022705,2.777956008911133,,,,,,
8512960000.0,326.63,15.369999885559082,6529777152.0,3522.088730147674,125.0,0.02348186820745468,2064384.0,2320.9024090766907,0.00392476050183177,0.0399169921875,2.2509803771972656,-0.020724674686789513,0.4001307487487793,-0.022509803995490074,0.0017851293087005615,0.0,0.1932034194469452,0.844386637210846,0.8435912612729743,4.278195381164551,1.9656513929367065,4.47139835357666,2.1350626945495605,4.651785135269165,2.7736473083496094,,,,,,
8512960000.0,344.06,16.479999542236328,6529777152.0,3507.01169024706,126.0,0.02677202597260475,2080768.0,2325.574192762375,0.003860922995954752,0.03564453125,2.2504122257232666,-0.020767809823155403,0.3708282709121704,-0.02250412106513977,0.0017363112419843674,0.0,0.20568165183067322,0.8008260726928711,0.8771189719828265,4.379879951477051,2.20621395111084,4.585561752319336,2.284525156021118,4.671783685684204,2.7599575519561768,,,,,,
8513064000.0,347.59,17.469999313354492,6529777152.0,3381.7099051490077,127.0,0.02956879884004593,2097152.0,2330.419079065323,0.0036819251254200935,0.03729248046875,2.2502429485321045,-0.020225828513503075,0.4223521947860718,-0.022502431645989418,0.0022766059264540672,0.0,0.241876482963562,0.7967960238456726,0.8564334821618329,4.505615234375,1.9940489530563354,4.747491359710693,2.1029088497161865,4.844886302947998,2.812577247619629,,,,,,
,,,,,,,,,,,,,,,,,,,,,,,,,,0.05710217356681824,1.1383506059646606,0.9592458009719849,0.05710217356681824,1.1383506059646606,0.9592458009719849
,,,,,,,,,,,,,,,,,,,,,,,,,,0.029510606080293655,0.8153538703918457,0.7547022700309753,0.029510606080293655,0.8153538703918457,0.7547022700309753
,,,,,,,,,,,,,,,,,,,,,,,,,,0.02671857923269272,0.749096155166626,0.7198757529258728,0.02671857923269272,0.749096155166626,0.7198757529258728
,,,,,,,,,,,,,,,,,,,,,,,,,,0.023766668513417244,0.7094261050224304,0.695225179195404,0.023766668513417244,0.7094261050224304,0.695225179195404
,,,,,,,,,,,,,,,,,,,,,,,,,,0.022378601133823395,0.6915451288223267,0.6796778440475464,0.022378601133823395,0.6915451288223267,0.6796778440475464
,,,,,,,,,,,,,,,,,,,,,,,,,,0.02091086469590664,0.6781265139579773,0.6723134517669678,0.02091086469590664,0.6781265139579773,0.6723134517669678
8513064000.0,346.77,17.489999771118164,6327188480.0,28.190285007973987,128.0,0.02488965168595314,2113536.0,2911.6122097969055,0.004186192061752081,0.044677734375,2.224062442779541,-0.02102198638021946,0.24999746680259705,-0.02224062569439411,0.001218636054545641,0.0,0.28138425946235657,0.6865450143814087,0.9055006494016473,3.6366348266601562,2.105837345123291,3.9180192947387695,2.2333390712738037,581.1931307315826,2.763641595840454,,,,,,
8513064000.0,352.1,18.56999969482422,6529777152.0,3544.615595890938,129.0,0.030713647603988647,2129920.0,2916.234431743622,0.004446989856660366,0.04315185546875,2.2362074851989746,-0.021565638482570648,0.28168296813964844,-0.02236207388341427,0.0007964354008436203,0.0,0.31075870990753174,0.7231216430664062,0.8911879311091316,4.220318794250488,2.093665361404419,4.5310773849487305,2.1921637058258057,4.622221946716309,2.7588744163513184,,,,,,
8513064000.0,356.71,19.1200008392334,6529777152.0,3593.5739764694413,130.0,0.030068382620811462,2146304.0,2920.7936811447144,0.0038119503296911716,0.03778076171875,2.229607582092285,-0.020723216235637665,0.2675979435443878,-0.022296078503131866,0.0015728604048490524,0.0,0.24296550452709198,0.7351688146591187,0.9000220187000789,4.614458084106445,2.231699228286743,4.857423782348633,2.325063467025757,4.559249401092529,2.770885705947876,,,,,,
8513064000.0,360.56,19.440000534057617,6529777152.0,3526.82321576773,131.0,0.028273772448301315,2162688.0,2925.4392216205597,0.0031791292130947113,0.0269775390625,2.2473344802856445,-0.01981070078909397,0.36708420515060425,-0.022473344579339027,0.0026626456528902054,0.0,0.236589252948761,0.8596011996269226,0.8592333984143691,5.124216079711914,2.2669906616210938,5.360805034637451,2.29111647605896,4.645540475845337,2.765895366668701,,,,,,
8513064000.0,375.52,20.360000610351562,6529777152.0,3554.1504039773686,132.0,0.029263406991958618,2179072.0,2930.049043416977,0.009843224659562111,0.07574462890625,2.2420201301574707,-0.01634632609784603,0.2921263575553894,-0.02242019958794117,0.006073875352740288,0.0,0.22252273559570312,0.7518926858901978,0.8801634527435447,5.252892971038818,2.1250104904174805,5.475415229797363,2.1720056533813477,4.609821796417236,2.7492501735687256,,,,,,
8513064000.0,369.46,19.540000915527344,6529777152.0,3612.6168943591174,133.0,0.028726400807499886,2195456.0,2934.5842599868774,0.004587615840137005,0.04669189453125,2.241567373275757,-0.020300086587667465,0.40345582365989685,-0.02241567336022854,0.002115584909915924,0.0,0.10674424469470978,0.881406843662262,0.8306824571528848,5.415794372558594,2.015650749206543,5.522539138793945,2.142030715942383,4.535216569900513,2.7573680877685547,,,,,,
8513064000.0,363.01,18.360000610351562,6529777152.0,3472.223152062906,134.0,0.026210930198431015,2211840.0,2939.3028507232666,0.003475381527096033,0.02703857421875,2.253854513168335,-0.02132638357579708,0.36922988295555115,-0.022538546472787857,0.0012121601030230522,0.0,0.16965438425540924,0.8523505330085754,0.8195836173870732,5.762197494506836,1.9046649932861328,5.931851863861084,2.0066890716552734,4.71859073638916,2.7417843341827393,,,,,,
8513064000.0,366.18,18.43000030517578,6529777152.0,3515.1821389739275,135.0,0.02841595932841301,2228224.0,2943.9637756347656,0.0030084550380706787,0.0289306640625,2.230529308319092,-0.01911282353103161,0.33031409978866577,-0.02230529487133026,0.003192475065588951,0.0,0.1354319453239441,0.7911822199821472,0.8621914984436662,5.69279670715332,2.0306568145751953,5.828228950500488,2.1312718391418457,4.660924911499023,2.7610738277435303,,,,,,
8513064000.0,375.9,19.639999389648438,6529777152.0,3489.434946195418,136.0,0.03067743219435215,2244608.0,2948.6590917110443,0.005825898610055447,0.05682373046875,2.2359459400177,-0.01572108455002308,0.29382839798927307,-0.022359458729624748,0.006638373248279095,0.0,0.20565718412399292,0.7263564467430115,0.8668422652661687,5.9825639724731445,1.925693392753601,6.188220977783203,1.9905195236206055,4.6953160762786865,2.7616076469421387,,,,,,
8513064000.0,377.51,20.920000076293945,6529777152.0,3523.4845074200884,137.0,0.03165247291326523,2260992.0,2953.3090341091156,0.004661597777158022,0.0364990234375,2.219482898712158,-0.019045675173401833,0.293523371219635,-0.02219482697546482,0.0031491494737565517,0.0,0.2362540066242218,0.7419396042823792,0.8639428000622122,6.390542030334473,1.9651628732681274,6.626795768737793,2.011444091796875,4.649942398071289,2.7608327865600586,,,,,,
8513064000.0,388.41,22.829999923706055,6529777152.0,3536.072263212569,138.0,0.0323110967874527,2277376.0,2957.942423582077,0.003604761091992259,0.034912109375,2.2329154014587402,-0.02081948146224022,0.276950478553772,-0.02232915349304676,0.0015096738934516907,0.0,0.16056233644485474,0.7121502757072449,0.8722288165083834,6.535153388977051,1.9641578197479248,6.695714950561523,1.9923006296157837,4.633389472961426,2.7467641830444336,,,,,,
8513064000.0,382.81,21.729999542236328,6529777152.0,3591.8547662817396,139.0,0.028727609664201736,2293760.0,2962.503855228424,0.004697902128100395,0.03900146484375,2.2102370262145996,-0.019152838736772537,0.32007652521133423,-0.022102370858192444,0.0029495302587747574,0.0,0.12284832447767258,0.7880116105079651,0.824731645657806,6.248006820678711,1.8300838470458984,6.370855331420898,1.8822654485702515,4.561431646347046,2.7523791790008545,,,,,,
8513064000.0,376.8,22.09000015258789,6529777152.0,3536.0868196197093,140.0,0.03236047923564911,2310144.0,2967.137225627899,0.0036334600299596786,0.037353515625,2.2300374507904053,-0.020651839673519135,0.25243914127349854,-0.022300375625491142,0.0016485359519720078,0.0,0.16565173864364624,0.7081419825553894,0.8656938125557556,6.788426876068115,1.8648309707641602,6.954078674316406,1.932291030883789,4.633370399475098,2.7722549438476562,,,,,,
8513064000.0,387.44,22.399999618530273,6529777152.0,3426.413287125598,141.0,0.027867602184414864,2326528.0,2971.918902158737,0.0037200874648988247,0.0372314453125,2.192030191421509,-0.021725598722696304,0.22427557408809662,-0.021920301020145416,0.00019470229744911194,0.0,0.1871408224105835,0.6632090210914612,0.8468742328556969,6.735569000244141,1.6410044431686401,6.922709941864014,1.694830298423767,4.781676530838013,2.7589375972747803,,,,,,
8513064000.0,394.59,23.110000610351562,6529777152.0,3596.2632455434414,142.0,0.03528229892253876,2342912.0,2976.4747421741486,0.0031345668248832226,0.02899169921875,2.213081121444702,-0.02080511674284935,0.2516910433769226,-0.022130809724330902,0.0013256929814815521,0.0,0.11818493157625198,0.7000424861907959,0.8510541900686357,7.040620803833008,1.7631993293762207,7.158805847167969,1.8138877153396606,4.555840015411377,2.756167411804199,,,,,,
8513064000.0,393.74,22.6299991607666,6529777152.0,3422.436048765503,143.0,0.026953373104333878,2359296.0,2981.2619755268097,0.004073472693562508,0.04400634765625,2.220475912094116,-0.02227502502501011,0.2436441034078598,-0.02220476046204567,-7.026642560958862e-05,0.0,0.14271892607212067,0.6827864050865173,0.835290251154338,6.952998161315918,1.5998960733413696,7.095716953277588,1.6823818683624268,4.787233352661133,2.816035270690918,,,,,,
8513064000.0,379.51,21.690000534057617,6529777152.0,3583.5901576510078,144.0,0.03397481516003609,2375680.0,2985.8339269161224,0.003743998007848859,0.03057861328125,2.2334721088409424,-0.02042393386363983,0.2770202159881592,-0.022334719076752663,0.0019107870757579803,0.0,0.1099504828453064,0.741742730140686,0.8430377484281703,6.907272815704346,1.7230674028396606,7.017223358154297,1.8722155094146729,4.571951389312744,2.751878261566162,,,,,,
8513064000.0,387.51,22.170000076293945,6529777152.0,3493.241869343931,145.0,0.030553195625543594,2392064.0,2990.5241260528564,0.00396954920142889,0.0408935546875,2.242018461227417,-0.02071874961256981,0.22493910789489746,-0.022420184686779976,0.0017014355398714542,0.0,0.1911149024963379,0.6609306335449219,0.8200373169418056,6.997777938842773,1.5602481365203857,7.188892841339111,1.5579895973205566,4.690199136734009,2.7542707920074463,,,,,,
8513064000.0,396.08,23.59000015258789,6529777152.0,3521.8820490580583,146.0,0.03219275921583176,2408448.0,2995.1761841773987,0.0032484852708876133,0.02593994140625,2.2461020946502686,-0.020464293658733368,0.1847100853919983,-0.022461017593741417,0.0019967257976531982,0.0,0.1491614580154419,0.593716561794281,0.8524513513631992,7.125354766845703,1.490244746208191,7.274516582489014,1.5456522703170776,4.652058124542236,2.7529797554016113,,,,,,
8513064000.0,406.46,24.3799991607666,6529777152.0,3496.040532808367,147.0,0.03414253890514374,2424832.0,2999.862628698349,0.00400290172547102,0.03497314453125,2.2321906089782715,-0.020839979872107506,0.27419382333755493,-0.022321907803416252,0.001481926068663597,0.0,0.08824709802865982,0.737894594669342,0.8373111572461215,7.286869525909424,1.7091104984283447,7.37511682510376,1.829430103302002,4.686444520950317,2.7618303298950195,,,,,,
8513064000.0,400.58,23.6299991607666,6529777152.0,3543.993336086585,148.0,0.02233906462788582,2441216.0,3004.4856622219086,0.0032746270298957825,0.03424072265625,2.247335433959961,-0.022792890667915344,0.20360085368156433,-0.022473350167274475,-0.0003195386379957199,0.0,0.1326507329940796,0.6345892548561096,0.8258269369501716,7.099369049072266,1.4367936849594116,7.232019901275635,1.5205564498901367,4.62303352355957,2.787574052810669,,,,,,
8513064000.0,409.76,23.889999389648438,6529777152.0,3575.7534355618777,149.0,0.03571382910013199,2457600.0,3009.067633628845,0.0036566469352692366,0.0262451171875,2.2175629138946533,-0.021290777251124382,0.203983336687088,-0.0221756249666214,0.0008848495781421661,0.0,0.13832437992095947,0.6138325333595276,0.828156669735915,7.34421968460083,1.4419240951538086,7.4825439453125,1.480756402015686,4.5819714069366455,2.769185781478882,,,,,,
8513064000.0,411.23,24.299999237060547,6529777152.0,3580.345355698714,150.0,0.03268105536699295,2473984.0,3013.643728494644,0.003946963232010603,0.036376953125,2.233706474304199,-0.020633012056350708,0.16070950031280518,-0.022337062284350395,0.0017040511593222618,0.0,0.142515629529953,0.5578875541687012,0.8547624612765325,7.221732139587402,1.4170260429382324,7.364247798919678,1.463883876800537,4.57609486579895,2.77243709564209,,,,,,
8513064000.0,404.25,23.510000228881836,6529777152.0,3544.658196870433,151.0,0.028528429567813873,2490368.0,3018.2658948898315,0.0028503471985459328,0.025146484375,2.233917236328125,-0.021379373967647552,0.2038688063621521,-0.022339172661304474,0.0009598000906407833,0.0,0.08735264092683792,0.6343085765838623,0.8215425542051089,7.121264457702637,1.3916834592819214,7.208617210388184,1.5015274286270142,4.622166395187378,2.7702155113220215,,,,,,
8513064000.0,404.13,23.290000915527344,6529777152.0,3475.5094950610674,152.0,0.033989787101745605,2506752.0,3022.9800238609314,0.005093656480312347,0.046142578125,2.247497320175171,-0.021435588598251343,0.21058940887451172,-0.022474970668554306,0.0010393857955932617,0.0,0.13305732607841492,0.6408950686454773,0.796328171753439,7.337734222412109,1.3561750650405884,7.470791339874268,1.420108437538147,4.7141289710998535,2.7785801887512207,,,,,,
8513064000.0,407.28,23.299999237060547,6529777152.0,3589.561105743676,153.0,0.027058158069849014,2523136.0,3027.544370174408,0.002977534895762801,0.02777099609375,2.2390778064727783,-0.022226233035326004,0.1952258050441742,-0.02239077538251877,0.00016454048454761505,0.0,0.13201560080051422,0.5901898741722107,0.8074290829351415,7.625967025756836,1.3162988424301147,7.757983207702637,1.344921588897705,4.5643463134765625,2.7717630863189697,,,,,,
8513064000.0,393.55,23.110000610351562,6529777152.0,3495.54633567104,154.0,0.035036858171224594,2539520.0,3032.2314772605896,0.003996847663074732,0.03582763671875,2.2300705909729004,-0.019993828609585762,0.18912571668624878,-0.022300703451037407,0.002306874841451645,0.0,0.042044706642627716,0.6144306063652039,0.8276248971850957,7.694892406463623,1.3096619844436646,7.736937522888184,1.479911208152771,4.687107086181641,2.770622968673706,,,,,,
8513064000.0,383.14,21.799999237060547,6529777152.0,3485.5979462002583,155.0,0.030372753739356995,2555904.0,3036.9319620132446,0.0047743478789925575,0.0472412109375,2.2320334911346436,-0.018785959109663963,0.27388542890548706,-0.022320332005620003,0.0035343728959560394,0.0,0.05982319638133049,0.7352256774902344,0.7861892940917403,8.167573928833008,1.4679811000823975,8.227396965026855,1.5900311470031738,4.700484752655029,2.785708427429199,,,,,,
8513064000.0,382.71,22.260000228881836,6529777152.0,3455.437625858938,156.0,0.028617706149816513,2572288.0,3041.6734743118286,0.006518656853586435,0.06072998046875,2.2037434577941895,-0.018747737631201744,0.16193220019340515,-0.022037435322999954,0.003289697924628854,0.0,0.10562660545110703,0.553794264793396,0.8324900795516597,7.921924591064453,1.3378362655639648,8.027551651000977,1.353095531463623,4.741512298583984,2.780797004699707,,,,,,
8513064000.0,410.63,24.860000610351562,6529777152.0,3584.345488470676,157.0,0.038553718477487564,2588672.0,3046.244462251663,0.002415787661448121,0.02032470703125,2.2308692932128906,-0.020250968635082245,0.18421489000320435,-0.02230869047343731,0.0020577218383550644,0.0,0.08558742702007294,0.5734928846359253,0.8015530048634738,8.25146484375,1.2774772644042969,8.337053298950195,1.2873798608779907,4.570987939834595,2.772671937942505,,,,,,
8513064000.0,406.77,24.670000076293945,6529777152.0,3564.8713869478443,158.0,0.028337351977825165,2605056.0,3050.840420484543,0.004214002750813961,0.0347900390625,2.2109787464141846,-0.02206101268529892,0.22061458230018616,-0.022109786048531532,4.877219907939434e-05,0.0,0.05736597627401352,0.6221505403518677,0.8133816748442875,8.534194946289062,1.3257873058319092,8.591560363769531,1.440181016921997,4.595958232879639,2.780566930770874,,,,,,
8513064000.0,401.88,24.610000610351562,6529777152.0,3573.7488227263034,159.0,0.031016133725643158,2621440.0,3055.424962043762,0.005065516103059053,0.04632568359375,2.2162723541259766,-0.021107172593474388,0.27492424845695496,-0.022162724286317825,0.0010555535554885864,0.0,-0.010260794311761856,0.6596387028694153,0.7880598604334865,8.75175666809082,1.356878638267517,8.741495132446289,1.4328467845916748,4.58454155921936,2.7738215923309326,,,,,,
,,,,,,,,,,,,,,,,,,,,,,,,,,0.03953350707888603,1.3097000122070312,1.1274794340133667,0.03953350707888603,1.3097000122070312,1.1274794340133667
,,,,,,,,,,,,,,,,,,,,,,,,,,0.02386907860636711,1.0376396179199219,0.9753221273422241,0.02386907860636711,1.0376396179199219,0.9753221273422241
,,,,,,,,,,,,,,,,,,,,,,,,,,0.021552234888076782,0.9823609590530396,0.9401478171348572,0.021552234888076782,0.9823609590530396,0.9401478171348572
,,,,,,,,,,,,,,,,,,,,,,,,,,0.01992688700556755,0.944305419921875,0.9150752425193787,0.01992688700556755,0.944305419921875,0.9150752425193787
,,,,,,,,,,,,,,,,,,,,,,,,,,0.019798390567302704,0.9173060655593872,0.8968772888183594,0.019798390567302704,0.9173060655593872,0.8968772888183594
,,,,,,,,,,,,,,,,,,,,,,,,,,0.019128577783703804,0.9042590260505676,0.8983879685401917,0.019128577783703804,0.9042590260505676,0.8983879685401917
8513064000.0,400.09,24.059999465942383,6327188480.0,28.226780904413165,160.0,0.03201422095298767,2637824.0,3635.866637468338,0.0045384871773421764,0.0556640625,2.2084121704101562,-0.02193894423544407,0.16336509585380554,-0.022084122523665428,0.00014517921954393387,0.0,0.16271968185901642,0.5649514198303223,0.8949137569863583,6.822359561920166,1.6865053176879883,6.985078811645508,1.7427598237991333,580.4416754245758,2.840980052947998,,,,,,
8513064000.0,399.6,23.479999542236328,6529777152.0,3452.7573449782044,161.0,0.02688034623861313,2654208.0,3640.611830472946,0.004870780277997255,0.0469970703125,2.231435537338257,-0.02137112431228161,0.16666074097156525,-0.02231435663998127,0.000943231862038374,0.0,0.1074867695569992,0.5776493549346924,0.8520602956383017,6.818779468536377,1.4513946771621704,6.926266193389893,1.5018330812454224,4.745193004608154,2.774243116378784,,,,,,
8513064000.0,404.4,23.1200008392334,6529777152.0,3514.2524033844265,162.0,0.03153473138809204,2670592.0,3645.2739884853363,0.0029103788547217846,0.021240234375,2.2143032550811768,-0.020755399018526077,0.17844250798225403,-0.022143034264445305,0.0013876352459192276,0.0,0.08373593538999557,0.5968384146690369,0.8679089482556654,7.4468994140625,1.575421929359436,7.530634880065918,1.642176866531372,4.662158012390137,2.7783665657043457,,,,,,
8513064000.0,410.99,22.850000381469727,6529777152.0,3506.367316407465,163.0,0.032172538340091705,2686976.0,3649.946630716324,0.004749152809381485,0.04827880859375,2.234840154647827,-0.021169014275074005,0.13691546022891998,-0.022348400205373764,0.0011793822050094604,0.0,0.14738856256008148,0.5216734409332275,0.8808003896355806,7.360847473144531,1.4678752422332764,7.508235931396484,1.5109882354736328,4.672642230987549,2.808487892150879,,,,,,
8513064000.0,408.81,23.59000015258789,6529777152.0,3503.5169131374573,164.0,0.02778255194425583,2703360.0,3654.623074531555,0.00477738818153739,0.04736328125,2.2143502235412598,-0.01960320584475994,0.17508137226104736,-0.022143501788377762,0.0025402933824807405,0.0,0.08644500374794006,0.5941290855407715,0.859804982717366,7.541393280029297,1.4906476736068726,7.627837657928467,1.58677077293396,4.676443815231323,2.761326313018799,,,,,,
8513064000.0,405.24,22.489999771118164,6529777152.0,3501.282203354511,165.0,0.03166520968079567,2719744.0,3659.3025031089783,0.004923129454255104,0.05511474609375,2.2225914001464844,-0.022069089114665985,0.207024484872818,-0.022225912660360336,0.00015681982040405273,0.0,0.04607553035020828,0.646544337272644,0.8381870670717695,7.813605308532715,1.540347933769226,7.859681129455566,1.6072818040847778,4.679428577423096,2.7492330074310303,,,,,,
8513064000.0,399.95,22.260000228881836,6529777152.0,3534.1415087823725,166.0,0.026855656877160072,2736128.0,3663.938423871994,0.0018797589000314474,0.0123291015625,2.211792469024658,-0.020994648337364197,0.1865399032831192,-0.02211792767047882,0.0011232756078243256,0.0,0.10194599628448486,0.6033573150634766,0.8738051980761554,7.828916549682617,1.6162943840026855,7.9308624267578125,1.6984525918960571,4.635920763015747,2.7707953453063965,,,,,,
8513064000.0,408.02,23.729999542236328,6529777152.0,3607.6890106394035,167.0,0.03401036933064461,2752512.0,3668.4798352718353,0.00614712480455637,0.06243896484375,2.2198894023895264,-0.020601175725460052,0.14266842603683472,-0.02219889499247074,0.0015977174043655396,0.0,0.12680476903915405,0.5245109796524048,0.8670591104884176,7.858249664306641,1.4343632459640503,7.9850544929504395,1.438551425933838,4.541411399841309,2.762098550796509,,,,,,
8513064000.0,406.48,24.139999389648438,6529777152.0,3572.2210258933414,168.0,0.034423261880874634,2768896.0,3673.066337585449,0.00427063275128603,0.03887939453125,2.2093944549560547,-0.02003287337720394,0.2040427178144455,-0.022093946114182472,0.002061069943010807,0.0,0.055362530052661896,0.6369662880897522,0.8251164710850069,8.299240112304688,1.4641090631484985,8.354601860046387,1.523147463798523,4.586502313613892,2.774533271789551,,,,,,
8513064000.0,413.31,24.68000030517578,6529777152.0,3629.155412528846,169.0,0.028452757745981216,2785280.0,3677.5808866024017,0.0036804673727601767,0.0374755859375,2.1843488216400146,-0.020104767754673958,0.14519988000392914,-0.02184348739683628,0.0017387173138558865,0.0,0.09949477761983871,0.5392060279846191,0.8701063416799673,7.92523717880249,1.5030196905136108,8.024731636047363,1.4961001873016357,4.514549016952515,2.7621467113494873,,,,,,
8513064000.0,413.31,24.3799991607666,6529777152.0,3528.6243983333798,170.0,0.03286868706345558,2801664.0,3682.2240557670593,0.005123712122440338,0.04669189453125,2.179621696472168,-0.018848001956939697,0.1462748646736145,-0.02179621532559395,0.002948216162621975,0.0,0.07717005908489227,0.5367165207862854,0.822649492985497,8.02920150756836,1.2713357210159302,8.106371879577637,1.2744659185409546,4.643169164657593,2.757371664047241,,,,,,
8513064000.0,417.39,25.09000015258789,6529777152.0,3542.013211521238,171.0,0.028647763654589653,2818048.0,3686.8496737480164,0.004739892669022083,0.05120849609375,2.176236629486084,-0.02098492905497551,0.14875134825706482,-0.021762367337942123,0.0007774373516440392,0.0,0.08665480464696884,0.5469245314598083,0.8681511035162219,8.172945976257324,1.4175337553024292,8.259600639343262,1.5062224864959717,4.625617980957031,2.7630982398986816,,,,,,
8513064000.0,414.39,24.8700008392334,6529777152.0,3472.857844465826,172.0,0.03533674031496048,2834432.0,3691.567402124405,0.004367245361208916,0.0460205078125,2.164130687713623,-0.019952107220888138,0.1463373601436615,-0.021641304716467857,0.0016891988925635815,0.0,0.1079101413488388,0.532569169998169,0.8346786578181745,8.215860366821289,1.274674654006958,8.323770523071289,1.309820294380188,4.71772837638855,2.7820353507995605,,,,,,
8513064000.0,411.85,25.34000015258789,6529777152.0,3544.462935554602,173.0,0.033300019800662994,2850816.0,3696.1898231506348,0.0026919045485556126,0.0196533203125,2.155701160430908,-0.020787004381418228,0.11934442818164825,-0.02155701071023941,0.0007700081914663315,0.0,0.0672965794801712,0.48451393842697144,0.8640539231938258,8.460197448730469,1.284879207611084,8.527493476867676,1.3140865564346313,4.622421026229858,2.767573833465576,,,,,,
8513064000.0,404.73,24.860000610351562,6529777152.0,3612.3920465581587,174.0,0.02861843630671501,2867200.0,3700.725322008133,0.004561253823339939,0.051513671875,2.137282371520996,-0.018068987876176834,0.13107426464557648,-0.021372823044657707,0.0033038323745131493,0.0,0.048328153789043427,0.5181900858879089,0.8732482893439384,8.400352478027344,1.3590296506881714,8.44867992401123,1.45549738407135,4.535498857498169,2.7571475505828857,,,,,,
8513064000.0,405.84,24.059999465942383,6529777152.0,3467.357583762148,175.0,0.034069038927555084,2883584.0,3705.450534105301,0.006232901941984892,0.05401611328125,2.1688647270202637,-0.020231887698173523,0.11877860128879547,-0.02168864570558071,0.0014567594043910503,0.0,0.07411855459213257,0.48272860050201416,0.8596454857969575,8.571760177612305,1.2682759761810303,8.645878791809082,1.2885197401046753,4.725212097167969,2.7510485649108887,,,,,,
8513064000.0,402.65,23.979999542236328,6529777152.0,3666.134884702061,176.0,0.032596178352832794,2899968.0,3709.9195458889008,0.003935014363378286,0.0416259765625,2.1665756702423096,-0.01968708634376526,0.17401531338691711,-0.021665753796696663,0.0019786693155765533,0.0,0.05773664265871048,0.5781118273735046,0.8261968577586829,8.467341423034668,1.3195137977600098,8.525078773498535,1.3867007493972778,4.4690117835998535,2.7455148696899414,,,,,,
8513064000.0,404.44,24.309999465942383,6529777152.0,3476.722590080914,177.0,0.030100161209702492,2916352.0,3714.6320300102234,0.003887187922373414,0.03155517578125,2.181946277618408,-0.02011345699429512,0.1871938407421112,-0.0218194629997015,0.0017060069367289543,0.0,0.055361855775117874,0.6077407002449036,0.8411217555153717,8.762723922729492,1.4224933385849,8.818085670471191,1.524704933166504,4.712484121322632,2.781749963760376,,,,,,
8513064000.0,407.2,24.889999389648438,6529777152.0,3558.7050324780917,178.0,0.03723645955324173,2932736.0,3719.235951900482,0.0036808499135077,0.0345458984375,2.183687210083008,-0.020024068653583527,0.15438297390937805,-0.02183687314391136,0.0018128026276826859,0.0,0.013428905047476292,0.5634084939956665,0.8604922850453083,8.991166114807129,1.423858642578125,9.004594802856445,1.508423089981079,4.603921890258789,2.765397787094116,,,,,,
8513064000.0,402.07,24.5,6529777152.0,3545.3436100240915,179.0,0.02769342064857483,2949120.0,3723.857224702835,0.005284192506223917,0.04986572265625,2.1551342010498047,-0.020367639139294624,0.1466515213251114,-0.0215513426810503,0.001183701679110527,0.0,0.04680566489696503,0.5400042533874512,0.8873874415875191,8.749275207519531,1.4859812259674072,8.79608154296875,1.6091736555099487,4.621272802352905,2.768397569656372,,,,,,
8513064000.0,400.08,23.729999542236328,6529777152.0,3416.262514530536,180.0,0.033315643668174744,2965504.0,3728.653109073639,0.004469608422368765,0.039306640625,2.149075746536255,-0.019810490310192108,0.19990013539791107,-0.021490756422281265,0.0016802698373794556,0.0,0.04466910660266876,0.6249231100082397,0.8284227937731858,9.00204086303711,1.3915717601776123,9.046710014343262,1.50867760181427,4.795884370803833,2.7771341800689697,,,,,,
8513064000.0,401.44,23.8700008392334,6529777152.0,3562.2674386423014,181.0,0.0321553573012352,2981888.0,3733.2524268627167,0.00332902604714036,0.03570556640625,2.148289442062378,-0.019613713026046753,0.20039640367031097,-0.02148289419710636,0.0018691811710596085,0.0,-0.025867832824587822,0.6355554461479187,0.8615728366046306,8.973554611206055,1.6249336004257202,8.947686195373535,1.7082151174545288,4.599317789077759,2.789757013320923,,,,,,
8513064000.0,407.38,24.450000762939453,6529777152.0,3554.0518794157697,182.0,0.026121824979782104,2998272.0,3737.8623764514923,0.005079654045403004,0.05462646484375,2.1576340198516846,-0.019536372274160385,0.17517170310020447,-0.02157633751630783,0.0020399680361151695,0.0,0.026164501905441284,0.5912016034126282,0.8530659225113241,8.8416109085083,1.4827048778533936,8.867774963378906,1.5423156023025513,4.609949588775635,2.7599151134490967,,,,,,
8513064000.0,410.62,23.59000015258789,6529777152.0,3583.294355116039,183.0,0.036047160625457764,3014656.0,3742.4347052574158,0.00474168173968792,0.05474853515625,2.1298913955688477,-0.020096488296985626,0.20393596589565277,-0.021298915147781372,0.0012024221941828728,0.0,0.02194138988852501,0.6315344572067261,0.7756453006407262,9.003711700439453,1.2462214231491089,9.025653839111328,1.3333061933517456,4.572328805923462,2.754459857940674,,,,,,
