CpuMaxMemory,EpLenMean,EpRewMean,GpuMaxMemory,IPS_total,Iter,Misc/FrameRewMean,Misc/InteractCount,Misc/TimeElapsed,Opt/approxkl,Opt/clipfrac,Opt/entropy,Opt/loss_pi,Opt/loss_vf,Opt/negent,Opt/pg,Opt/pi_kl,VFStats/AdvMean,VFStats/AdvStd,VFStats/EV,VFStats/VpredMean,VFStats/VpredStd,VFStats/VtargMean,VFStats/VtargStd,del_time,wait_optimization,scaled/pol_distance,scaled/vf_aux,scaled/vf_true,unscaled/pol_distance,unscaled/vf_aux,unscaled/vf_true
2369908000.0,79.33,-1.0700000524520874,6317166080.0,3579.645224661172,0.0,-0.011687689460814,16384.0,4.5769898891448975,0.0036575491540133953,0.02703857421875,2.7044119834899902,-0.025715511292219162,0.17714475095272064,-0.02704411931335926,0.0013286042958498001,0.0,-0.16577214002609253,0.5787882208824158,0.0013997793935399683,0.005372989922761917,0.012982219457626343,-0.1603991687297821,0.5791937708854675,4.5769898891448975,2.721381664276123,,,,,,
2567332000.0,76.06,-2.3499999046325684,6519754752.0,3562.2733477771003,1.0,-0.012551775202155113,32768.0,9.176300048828125,0.00040127179818227887,0.0,2.7062551975250244,-0.027126239612698555,0.16315066814422607,-0.02706254832446575,-6.369408220052719e-05,0.0,-0.1507655680179596,0.5692956447601318,0.004882151278107316,-0.0920947790145874,0.027012215927243233,-0.2428603321313858,0.5706903338432312,4.5993101596832275,2.721006155014038,,,,,,
2764012000.0,85.13,-2.799999952316284,6519754752.0,3672.9022961533055,2.0,-0.012082962319254875,49152.0,13.637077569961548,0.0028061256743967533,0.01373291015625,2.6952173709869385,-0.027425572276115417,0.165291428565979,-0.026952171698212624,-0.0004734001122415066,0.0,-0.11586933583021164,0.5703201293945312,0.015527694415281679,-0.2579757571220398,0.039938785135746,-0.37384510040283203,0.5748003125190735,4.460777521133423,2.7276220321655273,,,,,,
2960692000.0,80.21,-2.1600000858306885,6519754752.0,3627.8487625335815,3.0,-0.013200558722019196,65536.0,18.153252601623535,0.003432504367083311,0.0272216796875,2.6916637420654297,-0.027303259819746017,0.1814875304698944,-0.026916639879345894,-0.0003866199404001236,0.0,-0.087973952293396,0.5930430293083191,0.011018435549887684,-0.4279134273529053,0.08123099058866501,-0.5158873796463013,0.5963374972343445,4.516175031661987,2.7286295890808105,,,,,,
3157108000.0,75.67,-1.399999976158142,6519754752.0,3641.056527780037,4.0,-0.01131974346935749,81920.0,22.653045415878296,0.002494972199201584,0.00439453125,2.6980514526367188,-0.025720354169607162,0.15265434980392456,-0.02698051556944847,0.001260160468518734,0.0,-0.042702656239271164,0.5486618876457214,0.027998327847118643,-0.4334035813808441,0.05005773529410362,-0.4761062264442444,0.5565078854560852,4.499792814254761,2.7307240962982178,,,,,,
3355108000.0,76.91,-2.880000114440918,6519754752.0,3626.6236275906253,5.0,-0.01433409471064806,98304.0,27.170746088027954,0.0011483458802103996,0.00433349609375,2.69368314743042,-0.026616616174578667,0.1799747347831726,-0.026936830952763557,0.0003202129155397415,0.0,-0.09993891417980194,0.5987614393234253,0.033061913586331704,-0.41750553250312805,0.06181710213422775,-0.5174444913864136,0.6089119911193848,4.517700672149658,2.738487482070923,,,,,,
3552844000.0,84.59,-1.9900000095367432,6519754752.0,3645.7615278191442,6.0,-0.013009422458708286,114688.0,31.664731740951538,0.0006929533556103706,0.0,2.7009644508361816,-0.02665400132536888,0.1775101125240326,-0.027009643614292145,0.0003556441515684128,0.0,-0.045725151896476746,0.5943769812583923,0.057907459982073584,-0.6143401861190796,0.0800705999135971,-0.6600652933120728,0.6123719215393066,4.493985652923584,2.7422876358032227,,,,,,
3751636000.0,77.62,-1.4199999570846558,6519754752.0,3466.5035065069824,7.0,-0.010350912809371948,131072.0,36.39110803604126,0.002318234648555517,0.01324462890625,2.691523551940918,-0.02680542692542076,0.15831522643566132,-0.026915237307548523,0.00010981084778904915,0.0,-0.02636011689901352,0.5591585636138916,0.06604875304382363,-0.5255694389343262,0.08255594968795776,-0.5519294738769531,0.5785925984382629,4.726376295089722,2.7375781536102295,,,,,,
3948580000.0,81.98,-2.240000009536743,6519754752.0,3630.1774392685497,8.0,-0.011661456897854805,147456.0,40.904386043548584,0.0007657703245058656,0.0028076171875,2.69307017326355,-0.026943983510136604,0.1665380299091339,-0.026930704712867737,-1.3283919543027878e-05,0.0,-0.01605856791138649,0.5773157477378845,0.10968778889078212,-0.6737796664237976,0.1474379599094391,-0.689838171005249,0.6118461489677429,4.513278007507324,2.7443766593933105,,,,,,
4146580000.0,82.53,-2.559999942779541,6519754752.0,3538.0623254606558,9.0,-0.013434678316116333,163840.0,45.53516936302185,0.0017619524151086807,0.0152587890625,2.68251895904541,-0.027427339926362038,0.18011082708835602,-0.026825185865163803,-0.0006021521985530853,0.0,-0.01669727824628353,0.5995798707008362,0.18723868488184792,-0.7272235155105591,0.1887464076280594,-0.7439208030700684,0.6650673151016235,4.630783319473267,2.7648675441741943,,,,,,
4344316000.0,81.31,-1.899999976158142,6519754752.0,3625.1856912113794,10.0,-0.009894158691167831,180224.0,50.054661989212036,0.0012677321210503578,0.0,2.6721861362457275,-0.026245146989822388,0.13453780114650726,-0.026721859350800514,0.00047671422362327576,0.0,-0.017391234636306763,0.5205069184303284,0.1683347976875602,-0.49371767044067383,0.15727640688419342,-0.5111088752746582,0.5707582235336304,4.5194926261901855,2.7575302124023438,,,,,,
4542316000.0,73.04,-1.5800000429153442,6519754752.0,3644.257743894549,11.0,-0.011354734189808369,196608.0,54.55050206184387,0.0018682372756302357,0.0076904296875,2.64483380317688,-0.02586199715733528,0.14659589529037476,-0.026448335498571396,0.0005863378755748272,0.0,-0.01694922149181366,0.540728747844696,0.22002803071796573,-0.486477792263031,0.21771931648254395,-0.5034270286560059,0.6122657060623169,4.495840072631836,2.7620315551757812,,,,,,
4740052000.0,81.04,-2.440000057220459,6519754752.0,3554.1189711078237,12.0,-0.014080425724387169,212992.0,59.160364627838135,0.0015321384416893125,0.00048828125,2.66618013381958,-0.026659950613975525,0.16923362016677856,-0.02666180022060871,1.8514692783355713e-06,0.0,-0.06376051902770996,0.5794888734817505,0.3131586068432253,-0.50115567445755,0.2994689345359802,-0.56491619348526,0.6992248296737671,4.609862565994263,2.757935047149658,,,,,,
4938844000.0,79.31,-1.7100000381469727,6519754752.0,3601.7714821072304,13.0,-0.011259248480200768,229376.0,63.70923733711243,0.003302098484709859,0.0269775390625,2.6475584506988525,-0.02691321261227131,0.14081531763076782,-0.026475582271814346,-0.0004376266151666641,0.0,-0.04674291983246803,0.5161206722259521,0.3068084729000754,-0.4523993730545044,0.2730213701725006,-0.4991423487663269,0.6199042797088623,4.548872709274292,2.747201681137085,,,,,,
5135788000.0,71.53,-1.659999966621399,6519754752.0,3529.6560257239507,14.0,-0.01096753217279911,245760.0,68.35104942321777,0.001907603582367301,0.00384521484375,2.655693531036377,-0.026359645649790764,0.12499130517244339,-0.026556937023997307,0.00019728904590010643,0.0,-0.008322234265506268,0.49820294976234436,0.30131275277807645,-0.48714640736579895,0.28195953369140625,-0.4954686462879181,0.5960256457328796,4.641812086105347,2.7559235095977783,,,,,,
5333788000.0,78.85,-2.119999885559082,6519754752.0,3623.8545701072226,15.0,-0.010914303362369537,262144.0,72.87220215797424,0.0009787750896066427,0.00201416015625,2.646583080291748,-0.026597442105412483,0.10939072072505951,-0.026465827599167824,-0.0001316165435127914,0.0,0.006050261668860912,0.4713783264160156,0.39030564550465985,-0.4929646849632263,0.31003767251968384,-0.48691439628601074,0.6036893129348755,4.52115273475647,2.757780075073242,,,,,,
5531524000.0,74.7,-1.600000023841858,6519754752.0,3426.2216109177643,16.0,-0.011813126504421234,278528.0,77.65414619445801,0.0016811310779303312,0.01104736328125,2.6418557167053223,-0.02637522481381893,0.15082882344722748,-0.02641855552792549,4.3329899199306965e-05,0.0,-0.03079771064221859,0.5165765285491943,0.4610385006178602,-0.4770194888114929,0.39794719219207764,-0.5078172087669373,0.703648567199707,4.781944036483765,2.7575275897979736,,,,,,
5729260000.0,79.63,-1.5399999618530273,6519754752.0,3540.2959134978364,17.0,-0.010683173313736916,294912.0,82.28200793266296,0.0014866250567138195,0.006591796875,2.680745840072632,-0.026266785338521004,0.13713088631629944,-0.026807459071278572,0.0005406765267252922,0.0,0.019028864800930023,0.4977627396583557,0.47084268112437444,-0.5694011449813843,0.4160957932472229,-0.550372302532196,0.684273898601532,4.627861738204956,2.7648653984069824,,,,,,
5927260000.0,80.45,-2.0999999046325684,6519754752.0,3539.0681301037685,18.0,-0.009433494880795479,311296.0,86.91147518157959,0.002360197016969323,0.01922607421875,2.6573472023010254,-0.026008591055870056,0.12790626287460327,-0.02657346799969673,0.0005648741498589516,0.0,0.006477904971688986,0.5065646767616272,0.48172157572618934,-0.5485111474990845,0.4446719288825989,-0.542033314704895,0.7036446928977966,4.629467248916626,2.7651655673980713,,,,,,
6126052000.0,77.48,-1.6200000047683716,6519754752.0,3457.884375356006,19.0,-0.009421799331903458,327680.0,91.64963245391846,0.0004595864738803357,0.0,2.671978235244751,-0.026337578892707825,0.12482152134180069,-0.02671978250145912,0.00038220547139644623,0.0,0.009205738082528114,0.5026032328605652,0.4712349784009725,-0.531852126121521,0.4496312141418457,-0.5226463079452515,0.691184401512146,4.738157272338867,2.766935110092163,,,,,,
6322996000.0,78.03,-1.159999966621399,6519754752.0,3462.018777161525,20.0,-0.009670916944742203,344064.0,96.3821313381195,0.0018254793249070644,0.0079345703125,2.6447839736938477,-0.026158515363931656,0.12209738790988922,-0.02644784189760685,0.0002893260680139065,0.0,0.03748913109302521,0.4962007403373718,0.5200702189967462,-0.5297964811325073,0.5075106620788574,-0.49230730533599854,0.7162564396858215,4.73249888420105,2.7679367065429688,,,,,,
6520732000.0,73.26,-1.9800000190734863,6519754752.0,3516.7515089087283,21.0,-0.011371942237019539,360448.0,101.04097628593445,0.004463743884116411,0.05096435546875,2.62194561958313,-0.026453828439116478,0.11335784196853638,-0.026219453662633896,-0.00023437431082129478,0.0,0.00878043845295906,0.47129499912261963,0.5955748933350069,-0.5635754466056824,0.5296915769577026,-0.5547950267791748,0.741094708442688,4.658844947814941,2.767094850540161,,,,,,
6718732000.0,73.05,-1.6699999570846558,6519754752.0,3477.4231559788477,22.0,-0.011546296067535877,376832.0,105.7525110244751,0.00216814037412405,0.01385498046875,2.636962413787842,-0.026273485273122787,0.12406423687934875,-0.026369623839855194,9.613577276468277e-05,0.0,0.000412793830037117,0.4925987720489502,0.591677854378416,-0.5159138441085815,0.5680223107337952,-0.5155010223388672,0.7708890438079834,4.711534738540649,2.7686667442321777,,,,,,
6916468000.0,73.11,-1.309999942779541,6519754752.0,3571.481561618297,23.0,-0.00888075865805149,393216.0,110.33996295928955,0.0022207191213965416,0.00848388671875,2.604351758956909,-0.026293152943253517,0.1037198007106781,-0.026043515652418137,-0.00024963729083538055,0.0,0.04666249454021454,0.45270028710365295,0.607754366071311,-0.43501365184783936,0.5936443209648132,-0.3883511424064636,0.7228225469589233,4.587451934814453,2.7598562240600586,,,,,,
7114468000.0,76.93,-1.4500000476837158,6519754752.0,3510.0065438216316,24.0,-0.008448110893368721,409600.0,115.00776052474976,0.0014389748685061932,0.0001220703125,2.6139345169067383,-0.025846969336271286,0.10051977634429932,-0.02613934502005577,0.0002923766151070595,0.0,0.030289040878415108,0.4244266152381897,0.6420471521487018,-0.4289564788341522,0.5694184303283691,-0.39866745471954346,0.709397554397583,4.667797565460205,2.7690303325653076,,,,,,
7313260000.0,73.66,-0.8199999928474426,6519754752.0,3545.2071646128265,25.0,-0.00998433493077755,425984.0,119.62921118736267,0.005357889458537102,0.05255126953125,2.546966075897217,-0.02561861276626587,0.09384103119373322,-0.02546965889632702,-0.0001489508431404829,0.0,-0.03985051065683365,0.4061904847621918,0.6186719596159675,-0.24291439354419708,0.4462197721004486,-0.28276491165161133,0.6577795743942261,4.621450662612915,2.7681708335876465,,,,,,
7510204000.0,72.93,-1.3700000047683716,6519754752.0,3555.0793031867347,26.0,-0.009752791374921799,442368.0,124.23782849311829,0.003913974855095148,0.02484130859375,2.528714656829834,-0.026488520205020905,0.0805639699101448,-0.025287149474024773,-0.0012013697996735573,0.0,-0.06056870520114899,0.399109810590744,0.5498976217574865,-0.12299980223178864,0.3744615912437439,-0.18356850743293762,0.5948901772499084,4.608617305755615,2.771268367767334,,,,,,
7707940000.0,76.63,-2.059999942779541,6519754752.0,3641.511873554638,27.0,-0.011748850345611572,458752.0,128.73705863952637,0.0030521629378199577,0.03155517578125,2.5306143760681152,-0.02508644387125969,0.08906194567680359,-0.02530614286661148,0.0002197008579969406,0.0,-0.06821155548095703,0.41817569732666016,0.6067578971524973,-0.18606247007846832,0.4506206214427948,-0.25427401065826416,0.6668509840965271,4.499230146408081,2.7764151096343994,,,,,,
7905940000.0,74.34,-1.309999942779541,6519754752.0,3577.0405102922423,28.0,-0.008411593735218048,475136.0,133.31738138198853,0.00353011442348361,0.02252197265625,2.4979348182678223,-0.02459646761417389,0.07008954882621765,-0.024979349225759506,0.00038288161158561707,0.0,-0.08059462904930115,0.3538481295108795,0.5834868547864582,-0.026555653661489487,0.344515323638916,-0.10715028643608093,0.5482801198959351,4.580322742462158,2.768653631210327,,,,,,
8103676000.0,73.63,-1.2599999904632568,6519754752.0,3568.8201327442935,29.0,-0.008890172466635704,491520.0,137.9082543849945,0.000820391345769167,0.0,2.5698630809783936,-0.025625484064221382,0.07711411267518997,-0.025698630139231682,7.314479444175959e-05,0.0,-0.03534287214279175,0.39037269353866577,0.6649043970059991,-0.2386217713356018,0.48913824558258057,-0.27396464347839355,0.6743649840354919,4.5908730030059814,2.763624429702759,,,,,,
8301412000.0,71.38,-1.5099999904632568,6519754752.0,3520.890858571572,30.0,-0.009665143676102161,507904.0,142.56162214279175,0.002441596472635865,0.02105712890625,2.5435545444488525,-0.025270961225032806,0.08595898747444153,-0.025435540825128555,0.00016458495520055294,0.0,0.007630891632288694,0.4150562286376953,0.6816229706454942,-0.34623411297798157,0.5733584761619568,-0.3386031985282898,0.735590398311615,4.653367757797241,2.765728235244751,,,,,,
8500204000.0,72.65,-1.0299999713897705,6519754752.0,3609.964372658325,31.0,-0.0079848263412714,524288.0,147.10017108917236,0.0011265019420534372,0.0013427734375,2.5607404708862305,-0.024839332327246666,0.06584113091230392,-0.025607401505112648,0.0007680659182369709,0.0,-0.018771667033433914,0.35197755694389343,0.6786871560719696,-0.14448751509189606,0.47044533491134644,-0.16325917840003967,0.6209418773651123,4.538548946380615,2.7693800926208496,,,,,,
,,,,,,,,,,,,,,,,,,,,,,,,,,0.0016138554783537984,0.14945580065250397,0.12549473345279694,0.0016138554783537984,0.14945580065250397,0.12549473345279694
,,,,,,,,,,,,,,,,,,,,,,,,,,0.0016696680104359984,0.10616633296012878,0.10343408584594727,0.0016696680104359984,0.10616633296012878,0.10343408584594727
,,,,,,,,,,,,,,,,,,,,,,,,,,0.0013883976498618722,0.09765977412462234,0.09513161331415176,0.0013883976498618722,0.09765977412462234,0.09513161331415176
,,,,,,,,,,,,,,,,,,,,,,,,,,0.0010052805300801992,0.09197989106178284,0.08952454477548599,0.0010052805300801992,0.09197989106178284,0.08952454477548599
,,,,,,,,,,,,,,,,,,,,,,,,,,0.0012985275825485587,0.09000774472951889,0.08825317025184631,0.0012985275825485587,0.09000774472951889,0.08825317025184631
,,,,,,,,,,,,,,,,,,,,,,,,,,0.0011343439109623432,0.08721445500850677,0.08567489683628082,0.0011343439109623432,0.08721445500850677,0.08567489683628082
8512376000.0,74.07,-1.1100000143051147,6327188480.0,28.24362698213142,32.0,-0.008169311098754406,540672.0,727.1956386566162,0.0007751364028081298,0.004638671875,2.5358705520629883,-0.025673672556877136,0.04224441945552826,-0.02535870485007763,-0.0003149658441543579,0.0,0.019514504820108414,0.3090287148952484,0.742967097839754,-0.3072502613067627,0.42905566096305847,-0.2877357602119446,0.6095432043075562,580.0954675674438,2.8069212436676025,,,,,,
8512376000.0,74.99,-0.7799999713897705,6529777152.0,3634.467172107558,33.0,-0.006892248056828976,557056.0,731.7035896778107,0.00454632006585598,0.05267333984375,2.5213544368743896,-0.025422638282179832,0.046947453171014786,-0.025213543325662613,-0.00020909402519464493,0.0,0.04455892741680145,0.31705883145332336,0.7540119129859895,-0.2770368158817291,0.5386520028114319,-0.23247787356376648,0.6392678022384644,4.507951021194458,2.782838821411133,,,,,,
8512376000.0,72.51,-1.0399999618530273,6529777152.0,3585.70143371231,34.0,-0.008421052247285843,573440.0,736.2728490829468,0.0016142930835485458,0.01171875,2.5693821907043457,-0.027281608432531357,0.060035303235054016,-0.025693820789456367,-0.0015877888072282076,0.0,0.010005222633481026,0.35012945532798767,0.7787348858274074,-0.29934677481651306,0.6172987818717957,-0.2893415689468384,0.7443413734436035,4.569259405136108,2.781843423843384,,,,,,
8512376000.0,75.5,-0.5,6529777152.0,3550.0713551178087,35.0,-0.005130514968186617,589824.0,740.8879675865173,0.004823388531804085,0.052734375,2.5907907485961914,-0.029226461425423622,0.06422781199216843,-0.025907907634973526,-0.0033185482025146484,0.0,0.05007393658161163,0.3626467287540436,0.7251184639026726,-0.25475937128067017,0.6420915126800537,-0.20468541979789734,0.6916891932487488,4.615118503570557,2.768949270248413,,,,,,
8512376000.0,77.5,-0.9700000286102295,6529777152.0,3540.532488187917,36.0,-0.004937957040965557,606208.0,745.5155200958252,0.0015367033192887902,0.01239013671875,2.628809928894043,-0.027451317757368088,0.06619756668806076,-0.026288097724318504,-0.001163220964372158,0.0,0.0029155041556805372,0.36805811524391174,0.6817130134935088,-0.12794341146945953,0.5519354939460754,-0.12502789497375488,0.652389645576477,4.627552509307861,2.772541046142578,,,,,,
8512376000.0,75.82,-0.23999999463558197,6529777152.0,3601.312053916957,37.0,-0.002017926424741745,622592.0,750.064973115921,0.006606252398341894,0.0755615234375,2.614229917526245,-0.025370249524712563,0.043559323996305466,-0.02614229917526245,0.000772048719227314,0.0,0.015351167879998684,0.2969585657119751,0.7407697011090573,-0.0734688863158226,0.515205442905426,-0.058117713779211044,0.5832476019859314,4.549453020095825,2.772918701171875,,,,,,
8512376000.0,77.99,-0.7900000214576721,6529777152.0,3389.461276540419,38.0,-0.004556852858513594,638976.0,754.898779630661,0.0019907664973288774,0.0186767578125,2.6009914875030518,-0.025996744632720947,0.042811714112758636,-0.02600991353392601,1.316796988248825e-05,0.0,-0.011633189395070076,0.295015811920166,0.757807858477989,-0.09239846467971802,0.503207266330719,-0.10403165221214294,0.5994670391082764,4.83380651473999,2.772188663482666,,,,,,
8512376000.0,75.09,-0.28999999165534973,6529777152.0,3504.541237473541,39.0,-0.0010365904308855534,655360.0,759.5738565921783,0.005134105682373047,0.058837890625,2.6128146648406982,-0.026741549372673035,0.042848147451877594,-0.026128144934773445,-0.0006134025752544403,0.0,0.04094488546252251,0.29809004068374634,0.6700663871595283,-0.07026892155408859,0.47464340925216675,-0.029324036091566086,0.5189603567123413,4.675076961517334,2.769610643386841,,,,,,
8512376000.0,77.87,-0.11999999731779099,6529777152.0,3593.482649600771,40.0,0.00018940048175863922,671744.0,764.1332218647003,0.0055581023916602135,0.06585693359375,2.6034157276153564,-0.024207206442952156,0.04008447006344795,-0.026034153997898102,0.0018269512802362442,0.0,0.028788328170776367,0.2872079908847809,0.7274353059234067,-0.05004075914621353,0.48296916484832764,-0.021252430975437164,0.5501254200935364,4.559365272521973,2.7663068771362305,,,,,,
8512376000.0,82.55,0.6800000071525574,6529777152.0,3571.4132559895424,41.0,0.003843836486339569,688128.0,768.7207615375519,0.0046083321794867516,0.05548095703125,2.6048450469970703,-0.027131620794534683,0.03183910623192787,-0.02604844979941845,-0.00108316820114851,0.0,0.046021297574043274,0.2669806480407715,0.5332451046364372,0.05262826383113861,0.39191246032714844,0.09864956140518188,0.3907827138900757,4.5875396728515625,2.771571397781372,,,,,,
8512376000.0,81.63,0.3100000023841858,6529777152.0,3531.7673760474863,42.0,0.003190466668456793,704512.0,773.3597986698151,0.006889411248266697,0.07489013671875,2.5999531745910645,-0.025881903246045113,0.03368842601776123,-0.025999534875154495,0.00011763186194002628,0.0,0.03086978569626808,0.2625487744808197,0.5991730884801967,0.09451907873153687,0.30329135060310364,0.12538886070251465,0.4146975874900818,4.639037132263184,2.771672248840332,,,,,,
8512376000.0,80.58,0.5400000214576721,6529777152.0,3508.1886727627866,43.0,0.0040109483525156975,720896.0,778.0300149917603,0.006860935129225254,0.080322265625,2.5955915451049805,-0.02537817507982254,0.031044645234942436,-0.025955913588404655,0.0005777375772595406,0.0,0.024829711765050888,0.2568446099758148,0.6367832789803678,0.12232965975999832,0.3286573886871338,0.1471593677997589,0.4261746108531952,4.67021632194519,2.772711753845215,,,,,,
8512376000.0,89.32,0.9900000095367432,6529777152.0,3455.747972272138,44.0,0.006961422506719828,737280.0,782.771101474762,0.005550272297114134,0.07025146484375,2.5902578830718994,-0.024061521515250206,0.027207810431718826,-0.025902578607201576,0.0018410561606287956,0.0,0.06328387558460236,0.23061296343803406,0.6975606188398917,0.12416592985391617,0.3404768705368042,0.18744979798793793,0.41933828592300415,4.741086483001709,2.768730401992798,,,,,,
8512376000.0,86.92,1.1200000047683716,6529777152.0,3469.2764623449884,45.0,0.005958492401987314,753664.0,787.4937000274658,0.006219849921762943,0.0760498046875,2.6009562015533447,-0.024034325033426285,0.02407175302505493,-0.026009559631347656,0.001975235529243946,0.0,0.05869003385305405,0.2223927527666092,0.6697926679906274,0.14120639860630035,0.3156581521034241,0.1998964250087738,0.3870145380496979,4.722598552703857,2.7681920528411865,,,,,,
8512376000.0,75.27,0.6200000047683716,6529777152.0,3536.105197254887,46.0,0.005597114562988281,770048.0,792.1270463466644,0.01346723735332489,0.1376953125,2.5460081100463867,-0.02000165544450283,0.026683788746595383,-0.025460079312324524,0.005458422936499119,0.0,0.04042588174343109,0.23294460773468018,0.7069165046682457,0.1553851068019867,0.33297044038772583,0.1958109736442566,0.4302857518196106,4.633346319198608,2.7720375061035156,,,,,,
8512376000.0,86.41,1.0199999809265137,6529777152.0,3536.2447643418664,47.0,0.005421288311481476,786432.0,796.7602097988129,0.0061530740931630135,0.07421875,2.601736068725586,-0.02454560622572899,0.031962767243385315,-0.026017360389232635,0.0014717532321810722,0.0,0.04503362253308296,0.24934864044189453,0.6771917310875237,0.1887182742357254,0.3279639184474945,0.23375189304351807,0.43886876106262207,4.6331634521484375,2.7668933868408203,,,,,,
8512376000.0,84.17,1.409999966621399,6529777152.0,3400.4166994983557,48.0,0.007274356670677662,802816.0,801.5784428119659,0.012031177058815956,0.13494873046875,2.578845977783203,-0.021319294348359108,0.03256523236632347,-0.025788456201553345,0.004469163715839386,0.0,0.050706468522548676,0.2551266849040985,0.677859422597136,0.21424983441829681,0.3553643226623535,0.2649562954902649,0.4495035707950592,4.818233013153076,2.78193736076355,,,,,,
8512376000.0,81.52,0.8899999856948853,6529777152.0,3484.7088844323403,49.0,0.006120952777564526,819200.0,806.2801268100739,0.008980515412986279,0.11273193359375,2.594128131866455,-0.020345542579889297,0.027990438044071198,-0.025941278785467148,0.005595734342932701,0.0,0.025728680193424225,0.2348419576883316,0.7165299240673318,0.1950608193874359,0.362108439207077,0.22078950703144073,0.4410848021507263,4.70168399810791,2.771338939666748,,,,,,
8512376000.0,84.63,1.2000000476837158,6529777152.0,3608.253129915639,50.0,0.007402741350233555,835584.0,810.8208281993866,0.005991923622786999,0.0760498046875,2.587923049926758,-0.027769457548856735,0.02623782865703106,-0.025879228487610817,-0.001890227198600769,0.0,0.03803122043609619,0.2278330773115158,0.698860287655849,0.2579132616519928,0.35323068499565125,0.2959445118904114,0.41517651081085205,4.540701389312744,2.7673449516296387,,,,,,
8512376000.0,89.5,1.6299999952316284,6529777152.0,3496.0312842238604,51.0,0.009451532736420631,851968.0,815.507285118103,0.006212188862264156,0.07745361328125,2.5815396308898926,-0.02456650510430336,0.026159003376960754,-0.02581539750099182,0.0012488923966884613,0.0,0.05136842280626297,0.22464916110038757,0.7618552074869147,0.3461342453956604,0.3860492408275604,0.3975026607513428,0.4603458344936371,4.686456918716431,2.7712836265563965,,,,,,
8512376000.0,96.75,1.9900000095367432,6529777152.0,3551.5507084627557,52.0,0.010964912362396717,868352.0,820.1204812526703,0.007474507670849562,0.0933837890625,2.5679075717926025,-0.025719163939356804,0.029365412890911102,-0.025679072365164757,-4.008738324046135e-05,0.0,0.041277311742305756,0.22874973714351654,0.7948598398302774,0.4395846128463745,0.4472387731075287,0.4808619022369385,0.5050509572029114,4.613196134567261,2.772942066192627,,,,,,
8512376000.0,93.41,1.909999966621399,6529777152.0,3520.72255777728,53.0,0.011243841610848904,884736.0,824.7740714550018,0.007686272729188204,0.09075927734375,2.552490234375,-0.022104954347014427,0.039089515805244446,-0.02552490122616291,0.003419948276132345,0.0,0.012924912385642529,0.2780037522315979,0.7781050603611785,0.5984019041061401,0.49542537331581116,0.6113268136978149,0.5901696681976318,4.653590202331543,2.7661490440368652,,,,,,
8512376000.0,101.92,2.309999942779541,6529777152.0,3485.8928684439784,54.0,0.012125025503337383,901120.0,829.4741585254669,0.0054436177015304565,0.06707763671875,2.5422935485839844,-0.024303637444972992,0.039002660661935806,-0.02542293258011341,0.0011192914098501205,0.0,0.023546017706394196,0.2803499400615692,0.7829825873377027,0.7081594467163086,0.5484115481376648,0.7317055463790894,0.6018013954162598,4.700087070465088,2.7689907550811768,,,,,,
8512376000.0,103.09,2.0299999713897705,6529777152.0,3568.220472841622,55.0,0.010678797960281372,917504.0,834.0658030509949,0.004533052444458008,0.05120849609375,2.5379090309143066,-0.02436417154967785,0.04180588945746422,-0.025379091501235962,0.0010149171575903893,0.0,-0.015586795285344124,0.28785115480422974,0.7616849246632094,0.7719144821166992,0.5299123525619507,0.7563276886940002,0.5896471738815308,4.591644525527954,2.766716957092285,,,,,,
8512376000.0,118.22,2.799999952316284,6529777152.0,3520.6644769934196,56.0,0.012849102728068829,933888.0,838.7194700241089,0.011340213008224964,0.1220703125,2.516674041748047,-0.02073099836707115,0.055119309574365616,-0.025166738778352737,0.004435737617313862,0.0,0.03202701359987259,0.32032036781311035,0.7420831144521851,0.8434476256370544,0.5483900904655457,0.8754746317863464,0.6307318806648254,4.653666973114014,2.788010835647583,,,,,,
8512376000.0,112.15,2.359999895095825,6529777152.0,3636.9741211866785,57.0,0.011522957123816013,950272.0,843.2243137359619,0.00650559039786458,0.0743408203125,2.504727363586426,-0.02115580439567566,0.048033833503723145,-0.025047272443771362,0.0038914699107408524,0.0,-0.036135051399469376,0.2992752194404602,0.7959042978873002,0.9227244853973389,0.5842490196228027,0.8865894079208374,0.6624510288238525,4.504843711853027,2.771303176879883,,,,,,
8512376000.0,139.32,3.0999999046325684,6529777152.0,3494.5135788210523,58.0,0.01233599241822958,966656.0,847.9128060340881,0.008321855217218399,0.10089111328125,2.5133373737335205,-0.02213163673877716,0.07441117614507675,-0.025133373215794563,0.0030017374083399773,0.0,0.04342527687549591,0.38016176223754883,0.660426033631541,0.847763180732727,0.5363549590110779,0.8911885023117065,0.6523808836936951,4.688492298126221,2.8306844234466553,,,,,,
8512376000.0,147.93,3.3499999046325684,6529777152.0,3645.9949981788454,59.0,0.012520885095000267,983040.0,852.4065039157867,0.01111885067075491,0.1273193359375,2.47645902633667,-0.021052882075309753,0.06849527359008789,-0.024764589965343475,0.0037117069587111473,0.0,0.0746287852525711,0.3545137941837311,0.6768669997540228,0.7352980375289917,0.4816399812698364,0.8099268674850464,0.6236522197723389,4.493697881698608,2.7737369537353516,,,,,,
8512376000.0,157.44,3.9100000858306885,6529777152.0,3563.2331036416654,60.0,0.012854753993451595,999424.0,857.004575252533,0.014731047675013542,0.14495849609375,2.462568759918213,-0.013994762673974037,0.10349748283624649,-0.024625686928629875,0.010630922392010689,0.0,0.0864955335855484,0.43718528747558594,0.6462443143355894,0.9139337539672852,0.5617964863777161,1.0004292726516724,0.7350447773933411,4.598071336746216,2.7749218940734863,,,,,,
8512376000.0,141.58,3.369999885559082,6529777152.0,3593.1562785472347,61.0,0.01272394135594368,1015808.0,861.5643546581268,0.01065522525459528,0.1204833984375,2.4706146717071533,-0.018212752416729927,0.07304683327674866,-0.024706145748496056,0.006493397057056427,0.0,0.037934042513370514,0.34970855712890625,0.7405666409972409,1.0493026971817017,0.5918631553649902,1.087236762046814,0.6865834593772888,4.559779405593872,2.771047830581665,,,,,,
8512376000.0,182.93,5.46999979019165,6529777152.0,3460.2621085926335,62.0,0.01676730439066887,1032192.0,866.2992560863495,0.01084352470934391,0.11895751953125,2.461148738861084,-0.020134907215833664,0.24672508239746094,-0.024611487984657288,0.004476577043533325,0.0,0.07333800196647644,0.6425697207450867,0.5634482364379652,1.3524715900421143,0.6808462738990784,1.425809621810913,0.9725286960601807,4.734901428222656,2.784592628479004,,,,,,
8512576000.0,167.07,4.130000114440918,6529777152.0,3476.2980248133285,63.0,0.011236616410315037,1048576.0,871.0123157501221,0.007652567233890295,0.09393310546875,2.45941162109375,-0.0214538611471653,0.10683257132768631,-0.02459411509335041,0.0031402595341205597,0.0,-0.006067437585443258,0.42212992906570435,0.7094285164544692,1.5735502243041992,0.6771523356437683,1.5674827098846436,0.7831043601036072,4.713059663772583,2.910763740539551,,,,,,
,,,,,,,,,,,,,,,,,,,,,,,,,,0.0246698260307312,0.18380998075008392,0.17616751790046692,0.0246698260307312,0.18380998075008392,0.17616751790046692
,,,,,,,,,,,,,,,,,,,,,,,,,,0.011916072107851505,0.15096458792686462,0.14276635646820068,0.011916072107851505,0.15096458792686462,0.14276635646820068
,,,,,,,,,,,,,,,,,,,,,,,,,,0.009875182993710041,0.13808153569698334,0.13421721756458282,0.009875182993710041,0.13808153569698334,0.13421721756458282
,,,,,,,,,,,,,,,,,,,,,,,,,,0.008869294077157974,0.12874934077262878,0.12531496584415436,0.008869294077157974,0.12874934077262878,0.12531496584415436
,,,,,,,,,,,,,,,,,,,,,,,,,,0.008523724973201752,0.12412463873624802,0.1218925341963768,0.008523724973201752,0.12412463873624802,0.1218925341963768
,,,,,,,,,,,,,,,,,,,,,,,,,,0.008218069560825825,0.11925166100263596,0.11608751863241196,0.008218069560825825,0.11925166100263596,0.11608751863241196
8513632000.0,192.27,5.840000152587891,6327188480.0,28.24039872103948,64.0,0.01758696511387825,1064960.0,1451.174096107483,0.0034801457077264786,0.03741455078125,2.4395432472229004,-0.022604094818234444,0.16491183638572693,-0.024395432323217392,0.001791338436305523,0.0,0.19444963335990906,0.6000123620033264,0.6529692827069011,1.0435441732406616,0.7121867537498474,1.237993836402893,1.0185356140136719,580.1617803573608,2.776951789855957,,,,,,
8513632000.0,192.57,5.829999923706055,6529777152.0,3517.8559802752848,65.0,0.016995366662740707,1081344.0,1455.831478357315,0.004044339992105961,0.04150390625,2.4270401000976562,-0.023447392508387566,0.2391703575849533,-0.024270398542284966,0.0008230074308812618,0.0,0.1723269671201706,0.7228378653526306,0.7463594419786161,1.2628662586212158,1.2130839824676514,1.4351933002471924,1.4352632761001587,4.657382249832153,2.890964984893799,,,,,,
8513632000.0,196.09,6.059999942779541,6529777152.0,3636.202413563604,66.0,0.014784393832087517,1097728.0,1460.3372781276703,0.002863180823624134,0.0255126953125,2.3951776027679443,-0.023785142228007317,0.21848253905773163,-0.023951774463057518,0.00016663363203406334,0.0,0.15714308619499207,0.636229395866394,0.7820090281113341,1.5057239532470703,1.1976300477981567,1.6628670692443848,1.3626817464828491,4.505799770355225,2.7697641849517822,,,,,,
8513632000.0,222.47,6.860000133514404,6529777152.0,3535.2425641918667,67.0,0.017238210886716843,1114112.0,1464.971755027771,0.0034698406234383583,0.03765869140625,2.36987042427063,-0.023237230256199837,0.27326667308807373,-0.023698704317212105,0.00046147964894771576,0.0,0.13048309087753296,0.6978192925453186,0.7250052575021413,1.625779628753662,1.1160662174224854,1.7562627792358398,1.3307021856307983,4.634476900100708,2.7688679695129395,,,,,,
8513632000.0,233.03,7.769999980926514,6529777152.0,3485.4924016244995,68.0,0.018895696848630905,1130496.0,1469.6723821163177,0.00598011864349246,0.07293701171875,2.346256732940674,-0.021460536867380142,0.28558629751205444,-0.0234625656157732,0.0020020324736833572,0.0,0.20678788423538208,0.7222949862480164,0.8104629617417591,2.101163387298584,1.4241788387298584,2.3079514503479004,1.6590807437896729,4.700627088546753,2.769057035446167,,,,,,
8513632000.0,237.87,9.270000457763672,6529777152.0,3550.8939017686707,69.0,0.019536294043064117,1146880.0,1474.2864315509796,0.005034218076616526,0.0592041015625,2.3499956130981445,-0.021844590082764626,0.2189362496137619,-0.023499956354498863,0.0016553684836253524,0.0,0.16630667448043823,0.6813532710075378,0.774391689680264,1.9732474088668823,1.1777418851852417,2.139554023742676,1.4344810247421265,4.614049434661865,2.7562153339385986,,,,,,
8513632000.0,228.66,9.5600004196167,6529777152.0,3445.943640941973,70.0,0.023790214210748672,1163264.0,1479.0410072803497,0.004062917549163103,0.04095458984375,2.318958282470703,-0.02193361334502697,0.2685583829879761,-0.02318958193063736,0.0012559648603200912,0.0,0.22418734431266785,0.7414323687553406,0.8462679826455727,2.25673246383667,1.6417956352233887,2.48091983795166,1.8909904956817627,4.754575729370117,2.76287841796875,,,,,,
8513632000.0,246.24,11.180000305175781,6529777152.0,3642.529288130289,71.0,0.021391257643699646,1179648.0,1483.5389807224274,0.0033154317643493414,0.036865234375,2.293592929840088,-0.02172756940126419,0.26875874400138855,-0.022935932502150536,0.001208360306918621,0.0,0.19936704635620117,0.6943594813346863,0.8575723764724876,2.392413854598999,1.5976892709732056,2.5917809009552,1.839870810508728,4.497973442077637,2.769317865371704,,,,,,
8513632000.0,251.74,10.930000305175781,6529777152.0,3608.657290212771,72.0,0.023294854909181595,1196032.0,1488.079173564911,0.005035842303186655,0.0467529296875,2.2864930629730225,-0.021020427346229553,0.36151182651519775,-0.02286493219435215,0.0018445039168000221,0.0,0.2288091778755188,0.8480721116065979,0.8108628292740372,2.566649913787842,1.7555228471755981,2.795459270477295,1.9500436782836914,4.5401928424835205,2.767820119857788,,,,,,
8513632000.0,266.57,11.15999984741211,6529777152.0,3505.0183163593842,73.0,0.02029510959982872,1212416.0,1492.7536141872406,0.006500770803540945,0.07086181640625,2.2800660133361816,-0.0183113943785429,0.3019217848777771,-0.022800659760832787,0.0044892653822898865,0.0,0.17295071482658386,0.7544862031936646,0.7922171479978277,2.524689197540283,1.4939391613006592,2.6976399421691895,1.6551843881607056,4.674440622329712,2.7661259174346924,,,,,,
8513632000.0,282.02,12.180000305175781,6529777152.0,3592.6197834928216,74.0,0.021348681300878525,1228800.0,1497.3140745162964,0.007588025648146868,0.0906982421875,2.2985150814056396,-0.020193321630358696,0.33088552951812744,-0.022985147312283516,0.0027918294072151184,0.0,0.1877637505531311,0.7804479002952576,0.8261079730437432,2.649728775024414,1.6959890127182007,2.8374924659729004,1.8715615272521973,4.560460329055786,2.7640554904937744,,,,,,
8513632000.0,283.52,12.1899995803833,6529777152.0,3582.470924706283,75.0,0.02398085966706276,1245184.0,1501.8874542713165,0.004604652523994446,0.04766845703125,2.2986862659454346,-0.02084038034081459,0.3414347171783447,-0.022986862808465958,0.0021464817691594362,0.0,0.21189531683921814,0.7997573614120483,0.8233954019192941,2.884242057800293,1.6849411725997925,3.096137523651123,1.9030808210372925,4.573379755020142,2.7603414058685303,,,,,,
8513632000.0,284.83,12.619999885559082,6529777152.0,3658.728379676248,76.0,0.019845755770802498,1261568.0,1506.3655128479004,0.004700647667050362,0.05035400390625,2.2869231700897217,-0.021584518253803253,0.2879129648208618,-0.022869231179356575,0.0012847110629081726,0.0,0.17711196839809418,0.729561448097229,0.7852291971978367,2.9195947647094727,1.4144728183746338,3.0967068672180176,1.5742520093917847,4.478058576583862,2.769519329071045,,,,,,
8513632000.0,295.05,13.869999885559082,6529777152.0,3648.34839231745,77.0,0.027374913915991783,1277952.0,1510.8563120365143,0.005068594589829445,0.06072998046875,2.285543918609619,-0.02121223695576191,0.35639625787734985,-0.02285544015467167,0.001643199473619461,0.0,0.2289559543132782,0.8133302330970764,0.8234686467338552,3.01564359664917,1.7112467288970947,3.2445993423461914,1.9357800483703613,4.490799188613892,2.7540104389190674,,,,,,
8513632000.0,299.64,14.449999809265137,6529777152.0,3541.9741427733643,78.0,0.02386413887143135,1294336.0,1515.4819810390472,0.00575897516682744,0.0634765625,2.2484397888183594,-0.02027922309935093,0.3461623787879944,-0.022484397515654564,0.0022051744163036346,0.0,0.2227116972208023,0.7826306819915771,0.8185224686854231,2.95587420463562,1.633853793144226,3.1785857677459717,1.837153434753418,4.625669002532959,2.7621994018554688,,,,,,
8513632000.0,309.32,15.069999694824219,6529777152.0,3500.5830479409315,79.0,0.024299876764416695,1310720.0,1520.1623442173004,0.005667934659868479,0.0638427734375,2.283888578414917,-0.01899578981101513,0.30576521158218384,-0.022838883101940155,0.003843097947537899,0.0,0.2255818098783493,0.7730472087860107,0.8282383829866866,3.583159923553467,1.714184045791626,3.808742046356201,1.8652757406234741,4.680363178253174,2.766554117202759,,,,,,
8513632000.0,317.85,16.8700008392334,6529777152.0,3555.419395798644,80.0,0.028257744386792183,1327104.0,1524.7705206871033,0.009712222963571548,0.1146240234375,2.2829678058624268,-0.01749100722372532,0.3741462230682373,-0.022829676046967506,0.0053386688232421875,0.0,0.19529181718826294,0.8414573669433594,0.8299125627466137,4.036405563354492,1.8499726057052612,4.231697082519531,2.0403096675872803,4.6081764698028564,2.759211301803589,,,,,,
8513632000.0,286.84,13.979999542236328,6529777152.0,3570.1292995136855,81.0,0.02282482013106346,1343488.0,1529.3597102165222,0.005241541191935539,0.06317138671875,2.32003116607666,-0.019968636333942413,0.41428881883621216,-0.02320031262934208,0.003231676295399666,0.0,0.1145181953907013,0.8718562126159668,0.8227483288081642,3.8682165145874023,1.8766989707946777,3.9827346801757812,2.070855140686035,4.589189529418945,2.7682769298553467,,,,,,
8513632000.0,276.8,13.15999984741211,6529777152.0,3524.47408599413,82.0,0.025446508079767227,1359872.0,1534.0083470344543,0.0033673918806016445,0.03558349609375,2.2492895126342773,-0.02100532501935959,0.33669283986091614,-0.022492894902825356,0.0014875680208206177,0.0,0.16978591680526733,0.8013744950294495,0.8348352161959692,4.055168628692627,1.7838263511657715,4.224954605102539,1.971863031387329,4.648636817932129,2.7640888690948486,,,,,,
8513632000.0,315.53,15.960000038146973,6529777152.0,3586.329817830071,83.0,0.026136498898267746,1376256.0,1538.5768058300018,0.0030691437423229218,0.0311279296875,2.28450083732605,-0.022175900638103485,0.39413490891456604,-0.022845009341835976,0.0006691068410873413,0.0,0.184963196516037,0.8589401841163635,0.8107891660605023,4.256688594818115,1.8511102199554443,4.441651344299316,1.9746482372283936,4.568458795547485,2.7652809619903564,,,,,,
8513632000.0,334.54,16.510000228881836,6529777152.0,3464.382291245557,84.0,0.023261360824108124,1392640.0,1543.3060760498047,0.0035934464540332556,0.0355224609375,2.286567211151123,-0.021377407014369965,0.37234991788864136,-0.022865671664476395,0.0014882659306749701,0.0,0.1113126203417778,0.8608965277671814,0.8066108936522077,4.18421745300293,1.8056361675262451,4.295530319213867,1.9576499462127686,4.7292702198028564,2.7614166736602783,,,,,,
8513632000.0,324.24,15.5,6529777152.0,3468.822720759916,85.0,0.02486521005630493,1409024.0,1548.029292345047,0.0019502551294863224,0.01739501953125,2.2982914447784424,-0.021426569670438766,0.3363249599933624,-0.02298291027545929,0.0015563410706818104,0.0,0.16206318140029907,0.7800160050392151,0.8379473983435998,4.102084159851074,1.747780680656433,4.2641472816467285,1.9376505613327026,4.72321629524231,2.765413284301758,,,,,,
8513632000.0,332.83,16.65999984741211,6529777152.0,3542.0135766537883,86.0,0.024606160819530487,1425408.0,1552.6549098491669,0.0035650990903377533,0.0394287109375,2.2825403213500977,-0.020630095154047012,0.29497700929641724,-0.02282540500164032,0.0021953065879642963,0.0,0.22408342361450195,0.7698419690132141,0.8352426049695453,4.105225563049316,1.7688672542572021,4.32930850982666,1.8966144323349,4.625617504119873,2.767490863800049,,,,,,
8513632000.0,347.55,18.100000381469727,6529777152.0,3541.6539575707448,87.0,0.030240051448345184,1441792.0,1557.2809970378876,0.004091319628059864,0.04229736328125,2.2919681072235107,-0.02156413160264492,0.3521980941295624,-0.022919680923223495,0.0013555530458688736,0.0,0.24419289827346802,0.8120595812797546,0.8237631141379054,4.439905166625977,1.808861255645752,4.684098243713379,1.9343702793121338,4.626087188720703,2.759328603744507,,,,,,
8513632000.0,350.11,18.600000381469727,6529777152.0,3639.066499045214,88.0,0.024801082909107208,1458176.0,1561.7832505702972,0.003389047458767891,0.035400390625,2.3178534507751465,-0.021711990237236023,0.27227675914764404,-0.02317853271961212,0.0014665424823760986,0.0,0.168176531791687,0.7371129989624023,0.7972327539998884,4.168011665344238,1.4280427694320679,4.336188316345215,1.6369497776031494,4.502253532409668,2.787092685699463,,,,,,
8513632000.0,341.7,17.75,6529777152.0,3510.497485827127,89.0,0.029674014076590538,1474560.0,1566.4503953456879,0.005909459665417671,0.0645751953125,2.3242573738098145,-0.021505363285541534,0.39969688653945923,-0.02324257232248783,0.0017372097354382277,0.0,0.18965284526348114,0.84739089012146,0.8156678990230719,4.571656227111816,1.8544337749481201,4.761308670043945,1.9737095832824707,4.667144775390625,2.790126323699951,,,,,,
8513632000.0,334.17,17.450000762939453,6529777152.0,3541.926494672664,90.0,0.02308906614780426,1490944.0,1571.07612657547,0.007200137246400118,0.07855224609375,2.3019988536834717,-0.020142901688814163,0.36794885993003845,-0.02301998808979988,0.0028770845383405685,0.0,0.1576998233795166,0.7846479415893555,0.8097750762211217,4.6083879470825195,1.6263530254364014,4.766087532043457,1.7990410327911377,4.6257312297821045,2.7738304138183594,,,,,,
8513632000.0,346.12,18.829999923706055,6529777152.0,3536.6826434124923,91.0,0.0301743745803833,1507328.0,1575.708716392517,0.0038451505824923515,0.0362548828125,2.287773609161377,-0.02077769860625267,0.31804418563842773,-0.022877739742398262,0.002100042998790741,0.0,0.2219274640083313,0.7559504508972168,0.8249425073151777,4.556191444396973,1.631907343864441,4.7781195640563965,1.806770920753479,4.632589817047119,2.7659902572631836,,,,,,
8513632000.0,367.07,20.540000915527344,6529777152.0,3395.175036933679,92.0,0.02897057682275772,1523712.0,1580.5343880653381,0.00797223299741745,0.08135986328125,2.309377670288086,-0.018554188311100006,0.3018561899662018,-0.023093776777386665,0.004539588466286659,0.0,0.2732989192008972,0.7510650753974915,0.81763681460045,4.653973579406738,1.5880333185195923,4.927272796630859,1.7587701082229614,4.825671672821045,2.820038318634033,,,,,,
8513632000.0,375.41,20.290000915527344,6529777152.0,3550.128759583729,93.0,0.02680942788720131,1540096.0,1585.1494319438934,0.006071517243981361,0.05828857421875,2.2628235816955566,-0.02035975083708763,0.3237488567829132,-0.022628234699368477,0.002268487121909857,0.0,0.1430467963218689,0.8010672926902771,0.8132569394437514,4.618584156036377,1.7473071813583374,4.761631011962891,1.8537311553955078,4.615043878555298,2.7615513801574707,,,,,,
8513632000.0,381.96,21.229999542236328,6529777152.0,3571.615953145364,94.0,0.02889014407992363,1556480.0,1589.7367112636566,0.003776621539145708,0.03814697265625,2.2782742977142334,-0.021662455052137375,0.2806554138660431,-0.022782742977142334,0.0011202869936823845,0.0,0.231697216629982,0.7385715842247009,0.8197840064564297,4.877534866333008,1.629091501235962,5.109232425689697,1.7397863864898682,4.587279319763184,2.7817060947418213,,,,,,
8513792000.0,387.25,22.049999237060547,6529777152.0,3530.371196595858,95.0,0.03327086567878723,1572864.0,1594.377583026886,0.00435420498251915,0.04840087890625,2.244499683380127,-0.02092752605676651,0.27574098110198975,-0.02244499698281288,0.0015174730215221643,0.0,0.20926275849342346,0.7286509871482849,0.8388846432645716,4.986832618713379,1.6381399631500244,5.1960954666137695,1.8153111934661865,4.64087176322937,2.7579433917999268,,,,,,
,,,,,,,,,,,,,,,,,,,,,,,,,,0.06452543288469315,1.1942765712738037,1.0942375659942627,0.06452543288469315,1.1942765712738037,1.0942375659942627
,,,,,,,,,,,,,,,,,,,,,,,,,,0.03109459951519966,0.9108343720436096,0.8475275039672852,0.03109459951519966,0.9108343720436096,0.8475275039672852
,,,,,,,,,,,,,,,,,,,,,,,,,,0.02811872400343418,0.869075357913971,0.8127843141555786,0.02811872400343418,0.869075357913971,0.8127843141555786
,,,,,,,,,,,,,,,,,,,,,,,,,,0.025373315438628197,0.8084192276000977,0.7698385715484619,0.025373315438628197,0.8084192276000977,0.7698385715484619
,,,,,,,,,,,,,,,,,,,,,,,,,,0.02516205795109272,0.782863974571228,0.7509652972221375,0.02516205795109272,0.782863974571228,0.7509652972221375
,,,,,,,,,,,,,,,,,,,,,,,,,,0.024889161810278893,0.7430531978607178,0.7284589409828186,0.024889161810278893,0.7430531978607178,0.7284589409828186
8513792000.0,366.97,20.010000228881836,6327188480.0,28.275258521706697,96.0,0.02262098714709282,1589248.0,2173.824097633362,0.004568777978420258,0.04913330078125,2.3268790245056152,-0.021103307604789734,0.24856658279895782,-0.023268790915608406,0.002165483310818672,0.0,0.26359426975250244,0.7013604640960693,0.8643142164939516,3.2580857276916504,1.707311987876892,3.5216798782348633,1.9040311574935913,579.4465146064758,2.815887451171875,,,,,,
8513792000.0,358.24,19.579999923706055,6529777152.0,3497.833369726958,97.0,0.028385277837514877,1605632.0,2178.5081400871277,0.004305570386350155,0.05206298828125,2.3131613731384277,-0.020942823961377144,0.3204740285873413,-0.023131610825657845,0.0021887875627726316,0.0,0.31360483169555664,0.79248046875,0.8642603200028492,3.955122470855713,2.036447286605835,4.2687273025512695,2.1509740352630615,4.684042453765869,2.7617340087890625,,,,,,
8513792000.0,358.51,19.829999923706055,6529777152.0,3434.3620906708484,98.0,0.027805734425783157,1622016.0,2183.2787494659424,0.0062127141281962395,0.07415771484375,2.3001303672790527,-0.021146833896636963,0.3113011419773102,-0.023001305758953094,0.0018544713966548443,0.0,0.21972252428531647,0.7841223478317261,0.861997830626886,4.407230854034424,1.9524240493774414,4.626954078674316,2.1107707023620605,4.770609378814697,2.7655439376831055,,,,,,
8513792000.0,355.2,19.739999771118164,6529777152.0,3412.535858019947,99.0,0.029015127569437027,1638400.0,2188.0798711776733,0.003575872629880905,0.0364990234375,2.2872400283813477,-0.022601429373025894,0.34897077083587646,-0.022872399538755417,0.0002709701657295227,0.0,0.21231159567832947,0.8409797549247742,0.8481285104870999,4.731194019317627,2.0376996994018555,4.94350528717041,2.1579790115356445,4.801121711730957,2.756993055343628,,,,,,
8513792000.0,357.1,19.420000076293945,6529777152.0,3544.080519729544,100.0,0.028453825041651726,1654784.0,2192.7027909755707,0.006451445631682873,0.0787353515625,2.304795503616333,-0.02066044695675373,0.34440091252326965,-0.023047953844070435,0.0023875050246715546,0.0,0.20002934336662292,0.8218217492103577,0.8232073572408273,4.799652099609375,1.8510884046554565,4.9996819496154785,1.9545449018478394,4.622919797897339,2.7681078910827637,,,,,,
8513792000.0,371.36,20.920000076293945,6529777152.0,3487.6733628948723,101.0,0.03176136687397957,1671168.0,2197.4004786014557,0.0033218401949852705,0.03179931640625,2.314532518386841,-0.022608928382396698,0.3260244131088257,-0.02314532734453678,0.0005363961681723595,0.0,0.24853941798210144,0.7933284640312195,0.8471366842101813,5.351485252380371,1.954867959022522,5.600024700164795,2.029090642929077,4.69768762588501,2.751148223876953,,,,,,
8513792000.0,382.32,22.290000915527344,6529777152.0,3524.6425648760746,102.0,0.02628750167787075,1687552.0,2202.048893213272,0.0044698514975607395,0.0472412109375,2.2917885780334473,-0.021508127450942993,0.30233249068260193,-0.022917883470654488,0.0014097550883889198,0.0,0.1603805422782898,0.7839495539665222,0.8195185999591894,5.643421173095703,1.8381943702697754,5.803802013397217,1.8453210592269897,4.648414611816406,2.753178596496582,,,,,,
8513792000.0,385.87,22.190000534057617,6529777152.0,3536.612022163898,103.0,0.029242917895317078,1703936.0,2206.681575536728,0.004107349552214146,0.0439453125,2.3037776947021484,-0.02098553627729416,0.3108263909816742,-0.023037776350975037,0.0020522396080195904,0.0,0.2007615864276886,0.7764925956726074,0.8146578364656433,5.669144630432129,1.7572665214538574,5.869906425476074,1.8036417961120605,4.6326823234558105,2.759725570678711,,,,,,
8513792000.0,390.32,22.649999618530273,6529777152.0,3625.6625173654043,104.0,0.029119305312633514,1720320.0,2211.2004737854004,0.003481450490653515,0.038330078125,2.2931299209594727,-0.020672578364610672,0.26875224709510803,-0.022931300103664398,0.0022587254643440247,0.0,0.24194878339767456,0.7339090704917908,0.8143440966783648,5.685633659362793,1.5733957290649414,5.927582740783691,1.7032878398895264,4.518898248672485,2.7479686737060547,,,,,,
8513792000.0,384.1,22.260000228881836,6529777152.0,3617.1452482787504,105.0,0.03204439952969551,1736704.0,2215.730012655258,0.004518659319728613,0.04705810546875,2.300464391708374,-0.020297681912779808,0.30671948194503784,-0.023004647344350815,0.002706967294216156,0.0,0.1316767781972885,0.7814041972160339,0.8147912681673294,6.019277572631836,1.7114548683166504,6.150954246520996,1.8157036304473877,4.529538869857788,2.7490196228027344,,,,,,
8513792000.0,374.12,21.6299991607666,6529777152.0,3610.5348947299344,106.0,0.030155783519148827,1753088.0,2220.267844438553,0.006257140077650547,0.0623779296875,2.2679660320281982,-0.020655762404203415,0.2755940854549408,-0.022679658606648445,0.00202389620244503,0.0,0.1647721827030182,0.7318437099456787,0.8206464763744777,6.031617164611816,1.5865907669067383,6.196389675140381,1.7280796766281128,4.537831783294678,2.750530958175659,,,,,,
8513792000.0,376.47,21.139999389648438,6529777152.0,3666.0889226455215,107.0,0.025800460949540138,1769472.0,2224.736912250519,0.0043886215426027775,0.0438232421875,2.284107208251953,-0.020351631566882133,0.2573968172073364,-0.02284107357263565,0.002489442005753517,0.0,0.16773240268230438,0.7111115455627441,0.8206838161666873,6.072948932647705,1.5785753726959229,6.2406816482543945,1.6792997121810913,4.469067811965942,2.756911516189575,,,,,,
8513792000.0,390.19,22.489999771118164,6529777152.0,3486.6772720236313,108.0,0.032681211829185486,1785856.0,2229.4359419345856,0.006931426469236612,0.0667724609375,2.259542942047119,-0.017440825700759888,0.2549320459365845,-0.022595427930355072,0.005154600366950035,0.0,0.1396341472864151,0.7009387016296387,0.8368930898612948,6.137860298156738,1.662168025970459,6.277494430541992,1.7355769872665405,4.6990296840667725,2.7617101669311523,,,,,,
8513792000.0,381.32,22.0,6529777152.0,3525.8853228877674,109.0,0.03107081726193428,1802240.0,2234.0827181339264,0.004847644828259945,0.04974365234375,2.2507877349853516,-0.020430274307727814,0.27272847294807434,-0.02250787615776062,0.0020776018500328064,0.0,0.19339770078659058,0.723150372505188,0.8181251053854434,6.198636054992676,1.5259463787078857,6.392033576965332,1.6956731081008911,4.64677619934082,2.759357213973999,,,,,,
8513792000.0,377.28,22.579999923706055,6529777152.0,3337.2443008179566,110.0,0.027078930288553238,1818624.0,2238.992157936096,0.002494977554306388,0.024169921875,2.2655701637268066,-0.021559787914156914,0.2779758870601654,-0.022655701264739037,0.0010959100909531116,0.0,0.11551409214735031,0.7049289345741272,0.8082767745627442,6.198057651519775,1.496399164199829,6.313571929931641,1.6099361181259155,4.9094398021698,2.7600648403167725,,,,,,
8513792000.0,377.46,21.8700008392334,6529777152.0,3592.622788621107,111.0,0.03207380697131157,1835008.0,2243.5526144504547,0.0035114968195557594,0.0389404296875,2.274661064147949,-0.020408734679222107,0.3050384819507599,-0.022746609523892403,0.0023378748446702957,0.0,0.14041349291801453,0.7607135772705078,0.815048262041716,6.5573272705078125,1.6314085721969604,6.6977410316467285,1.7688544988632202,4.5604565143585205,2.7504115104675293,,,,,,
8513792000.0,383.75,22.56999969482422,6529777152.0,3501.2210161067073,112.0,0.025443635880947113,1851392.0,2248.2321248054504,0.0034797557163983583,0.03668212890625,2.2704062461853027,-0.022313060238957405,0.2463269680738449,-0.02270406112074852,0.0003910008817911148,0.0,0.13371776044368744,0.6775076389312744,0.8100015788309218,6.612378120422363,1.4700453281402588,6.746095657348633,1.554314374923706,4.6795103549957275,2.7499516010284424,,,,,,
8513792000.0,392.49,23.440000534057617,6529777152.0,3544.1633207454065,113.0,0.03519676625728607,1867776.0,2252.8549365997314,0.003899288596585393,0.039794921875,2.262617826461792,-0.0216022077947855,0.2348821759223938,-0.022626178339123726,0.0010239668190479279,0.0,0.12776851654052734,0.679620087146759,0.8373808886585252,6.59663200378418,1.6000516414642334,6.724400520324707,1.6853116750717163,4.622811794281006,2.758303642272949,,,,,,
8513792000.0,403.77,24.059999465942383,6529777152.0,3520.528662019349,114.0,0.030000559985637665,1884160.0,2257.5087831020355,0.002040891209617257,0.01513671875,2.2697701454162598,-0.022594302892684937,0.24583964049816132,-0.022697702050209045,0.00010339729487895966,0.0,0.15994152426719666,0.676132321357727,0.7753181590056829,6.836239337921143,1.3768084049224854,6.996180534362793,1.4264194965362549,4.653846502304077,2.7572782039642334,,,,,,
8513792000.0,398.54,23.639999389648438,6529777152.0,3649.150261703204,115.0,0.028490502387285233,1900544.0,2261.9985954761505,0.003326437436044216,0.033203125,2.287529945373535,-0.020101197063922882,0.21692071855068207,-0.02287529781460762,0.0027740965597331524,0.0,0.11011724174022675,0.6509258151054382,0.8013567040649878,6.574338436126709,1.3484046459197998,6.684455871582031,1.4604758024215698,4.48981237411499,2.7511444091796875,,,,,,
8513792000.0,394.94,24.309999465942383,6529777152.0,3552.55960642799,116.0,0.03358425945043564,1916928.0,2266.6104815006256,0.00463753379881382,0.04351806640625,2.2727012634277344,-0.019267171621322632,0.25403591990470886,-0.022727007046341896,0.003459841012954712,0.0,0.16776444017887115,0.7049219608306885,0.7827478035573165,6.836189270019531,1.348652958869934,7.0039544105529785,1.512372612953186,4.611886024475098,2.7595412731170654,,,,,,
8513792000.0,392.09,23.770000457763672,6529777152.0,3564.524491613085,117.0,0.024989880621433258,1933312.0,2271.2068870067596,0.0028869977686554193,0.02593994140625,2.2550718784332275,-0.021550411358475685,0.23198464512825012,-0.02255071885883808,0.0010003079660236835,0.0,0.144138902425766,0.6687138080596924,0.7772354600471915,6.929399013519287,1.35167396068573,7.073537826538086,1.4168274402618408,4.596405506134033,2.7501165866851807,,,,,,
8513792000.0,401.05,24.25,6529777152.0,3536.9451316400064,118.0,0.03407904878258705,1949696.0,2275.8391330242157,0.0029913093894720078,0.02801513671875,2.241486072540283,-0.02146327495574951,0.2162781059741974,-0.022414861246943474,0.0009515844285488129,0.0,0.11760514229536057,0.6444692611694336,0.8003713328624469,7.112005710601807,1.4214576482772827,7.229610443115234,1.4424138069152832,4.632246017456055,2.779097557067871,,,,,,
8513792000.0,402.1,23.809999465942383,6529777152.0,3584.161719943404,119.0,0.029119372367858887,1966080.0,2280.4103553295135,0.0036200345493853092,0.033935546875,2.225402593612671,-0.02134731039404869,0.24366943538188934,-0.02225402556359768,0.0009067123755812645,0.0,0.10701415687799454,0.6490465402603149,0.7863936112625872,7.052437782287598,1.3107563257217407,7.159451961517334,1.4043281078338623,4.571222305297852,2.762312650680542,,,,,,
8513792000.0,398.86,23.93000030517578,6529777152.0,3488.3048631106567,120.0,0.031542327255010605,1982464.0,2285.107192516327,0.004840930923819542,0.05413818359375,2.2376699447631836,-0.0196530744433403,0.18377158045768738,-0.02237670123577118,0.0027236230671405792,0.0,0.16442640125751495,0.5976755023002625,0.8027612168862558,6.748991012573242,1.261849284172058,6.913417816162109,1.3457667827606201,4.6968371868133545,2.8241329193115234,,,,,,
8513792000.0,402.71,24.899999618530273,6529777152.0,3633.5038218173686,121.0,0.03440962731838226,1998848.0,2289.6163387298584,0.0025311345234513283,0.02374267578125,2.2308483123779297,-0.019859183579683304,0.21844834089279175,-0.022308481857180595,0.0024492964148521423,0.0,0.14901325106620789,0.6511859893798828,0.7798803258771194,7.179722309112549,1.2869248390197754,7.3287353515625,1.3879551887512207,4.509146213531494,2.7515604496002197,,,,,,
8513792000.0,388.03,24.149999618530273,6529777152.0,3598.6297419586876,122.0,0.0273042730987072,2015232.0,2294.169182777405,0.005217361263930798,0.0521240234375,2.2333791255950928,-0.019985660910606384,0.24480855464935303,-0.022333789616823196,0.0023481291718780994,0.0,0.07140500843524933,0.6859374046325684,0.7697558358423318,6.95773983001709,1.2305868864059448,7.029144763946533,1.429518699645996,4.552844047546387,2.766510486602783,,,,,,
8513792000.0,390.31,24.18000030517578,6529777152.0,3438.6878211628527,123.0,0.03176751732826233,2031616.0,2298.933790922165,0.0018387784948572516,0.01495361328125,2.2218358516693115,-0.021662060171365738,0.1610105037689209,-0.022218357771635056,0.0005562976002693176,0.0,0.161884605884552,0.5546560883522034,0.8163696133978104,7.184210777282715,1.2772035598754883,7.346095561981201,1.294348120689392,4.764608144760132,2.7744998931884766,,,,,,
8513792000.0,408.16,25.34000015258789,6529777152.0,3597.1474453803394,124.0,0.03430556505918503,2048000.0,2303.4885110855103,0.0026484953705221415,0.0228271484375,2.200690984725952,-0.019590653479099274,0.20227530598640442,-0.022006910294294357,0.0024162549525499344,0.0,0.1053808405995369,0.6374772787094116,0.7727119658014929,7.3933587074279785,1.32681143283844,7.498739242553711,1.3371381759643555,4.554720163345337,2.755129814147949,,,,,,
8513792000.0,404.74,25.149999618530273,6529777152.0,3511.499160749398,125.0,0.02881675399839878,2064384.0,2308.154324531555,0.003377932356670499,0.037109375,2.2204999923706055,-0.02205704152584076,0.21408326923847198,-0.02220500074326992,0.000147960614413023,0.0,0.10091781616210938,0.6392364501953125,0.7364574187896762,7.3758416175842285,1.1107720136642456,7.47675895690918,1.245187520980835,4.665813446044922,2.763643503189087,,,,,,
8513792000.0,396.14,24.360000610351562,6529777152.0,3577.0194703878365,126.0,0.03173026442527771,2080768.0,2312.7346742153168,0.0032259926665574312,0.03118896484375,2.2171244621276855,-0.02123356983065605,0.19036829471588135,-0.022171245887875557,0.0009376779198646545,0.0,0.07776191085577011,0.6227356195449829,0.7984012153231943,7.372167110443115,1.2064545154571533,7.4499287605285645,1.3869454860687256,4.580349683761597,2.7808918952941895,,,,,,
8513824000.0,383.34,23.40999984741211,6529777152.0,3589.887011520637,127.0,0.032852523028850555,2097152.0,2317.298606157303,0.005392925348132849,0.05120849609375,2.228670597076416,-0.019736994057893753,0.24057045578956604,-0.022286705672740936,0.0025497134774923325,0.0,0.06551851332187653,0.6863372921943665,0.7861946026518051,7.440769195556641,1.3079725503921509,7.506287574768066,1.4843236207962036,4.563931941986084,2.775578737258911,,,,,,
,,,,,,,,,,,,,,,,,,,,,,,,,,0.03536713123321533,0.9670236706733704,0.7920731902122498,0.03536713123321533,0.9670236706733704,0.7920731902122498
,,,,,,,,,,,,,,,,,,,,,,,,,,0.02214580588042736,0.8411980867385864,0.759242057800293,0.02214580588042736,0.8411980867385864,0.759242057800293
,,,,,,,,,,,,,,,,,,,,,,,,,,0.020058248192071915,0.7505943179130554,0.6975709199905396,0.020058248192071915,0.7505943179130554,0.6975709199905396
,,,,,,,,,,,,,,,,,,,,,,,,,,0.019376423209905624,0.7032702565193176,0.6569496393203735,0.019376423209905624,0.7032702565193176,0.6569496393203735
,,,,,,,,,,,,,,,,,,,,,,,,,,0.01817602664232254,0.6824093461036682,0.6453982591629028,0.01817602664232254,0.6824093461036682,0.6453982591629028
,,,,,,,,,,,,,,,,,,,,,,,,,,0.01736810803413391,0.6639556288719177,0.634063184261322,0.01736810803413391,0.6639556288719177,0.634063184261322
8513824000.0,383.37,22.93000030517578,6327188480.0,28.21745126283572,128.0,0.02544897422194481,2113536.0,2897.932195186615,0.008236902765929699,0.0926513671875,2.2963452339172363,-0.019535258412361145,0.21152323484420776,-0.022963453084230423,0.0034281970001757145,0.0,0.14012520015239716,0.6427695751190186,0.8386982741857733,5.917860507965088,1.5103623867034912,6.057986259460449,1.6004278659820557,580.6335890293121,2.8000802993774414,,,,,,
8513824000.0,399.3,23.770000457763672,6529777152.0,3450.7171985667364,129.0,0.03548251837491989,2129920.0,2902.6801936626434,0.004586942959576845,0.04852294921875,2.251462459564209,-0.021121777594089508,0.20166467130184174,-0.022514624521136284,0.0013928450644016266,0.0,0.19578176736831665,0.6260478496551514,0.8424215564185757,6.534834384918213,1.5297049283981323,6.730616092681885,1.5770982503890991,4.747998476028442,2.8412952423095703,,,,,,
8513824000.0,404.35,24.209999084472656,6529777152.0,3547.7147904695016,130.0,0.02657400071620941,2146304.0,2907.298377752304,0.0033569657243788242,0.03338623046875,2.254016876220703,-0.021283216774463654,0.18335919082164764,-0.022540166974067688,0.00125695182941854,0.0,0.16340726613998413,0.5917990207672119,0.8655659963187653,6.68572998046875,1.5252563953399658,6.849137306213379,1.6140605211257935,4.6181840896606445,2.760632038116455,,,,,,
8513824000.0,406.45,25.149999618530273,6529777152.0,3501.933096872911,131.0,0.03509936481714249,2162688.0,2911.9769365787506,0.0055946363136172295,0.0679931640625,2.2152533531188965,-0.021399158984422684,0.20545318722724915,-0.022152531892061234,0.0007533758180215955,0.0,0.15152311325073242,0.6354284286499023,0.8346644349135806,6.917129039764404,1.549446940422058,7.068652153015137,1.562727928161621,4.678558826446533,2.739833116531372,,,,,,
8513824000.0,412.43,26.239999771118164,6529777152.0,3630.9786304818645,132.0,0.03198669105768204,2179072.0,2916.489218711853,0.005325085483491421,0.06109619140625,2.201502561569214,-0.020968208089470863,0.24455401301383972,-0.022015023976564407,0.0010468168184161186,0.0,0.1437719464302063,0.6927891969680786,0.7973231576693165,7.012574195861816,1.4938745498657227,7.156346321105957,1.5388587713241577,4.512282133102417,2.754168748855591,,,,,,
8513824000.0,401.16,24.68000030517578,6529777152.0,3636.499511090297,133.0,0.028887443244457245,2195456.0,2920.994650363922,0.005430214572697878,0.06524658203125,2.196850538253784,-0.021675970405340195,0.18327327072620392,-0.021968506276607513,0.00029253680258989334,0.0,0.12003351002931595,0.5999417901039124,0.816015188520833,6.9311137199401855,1.3151416778564453,7.051146984100342,1.3986785411834717,4.505431652069092,2.7446770668029785,,,,,,
8513824000.0,403.02,24.8799991607666,6529777152.0,3619.7873630533204,134.0,0.034304261207580566,2211840.0,2925.5208830833435,0.003373711137101054,0.028076171875,2.190885305404663,-0.021416250616312027,0.18841297924518585,-0.021908853203058243,0.0004926007241010666,0.0,0.1474793255329132,0.5932690501213074,0.8186434643148939,7.392372131347656,1.364048719406128,7.539851665496826,1.3931082487106323,4.526232719421387,2.7395262718200684,,,,,,
8513824000.0,406.26,25.68000030517578,6529777152.0,3557.330384191501,135.0,0.026961693540215492,2228224.0,2930.1265840530396,0.004381648264825344,0.050537109375,2.214906692504883,-0.01962483674287796,0.16958758234977722,-0.022149067372083664,0.002524232491850853,0.0,0.14201682806015015,0.5674211978912354,0.8176979003474882,7.238275051116943,1.2990511655807495,7.380291938781738,1.3289551734924316,4.605700969696045,2.7504184246063232,,,,,,
8513824000.0,414.77,26.489999771118164,6529777152.0,3604.923251375961,136.0,0.03386154770851135,2244608.0,2934.671479701996,0.004438579082489014,0.04742431640625,2.2241854667663574,-0.020633406937122345,0.1655907928943634,-0.022241855040192604,0.001608449500054121,0.0,0.12785466015338898,0.5696925520896912,0.7990866731277086,7.292636871337891,1.2045657634735107,7.4204912185668945,1.2709708213806152,4.544895648956299,2.755119800567627,,,,,,
8513824000.0,411.2,25.549999237060547,6529777152.0,3506.5256590387075,137.0,0.03315042704343796,2260992.0,2939.343910932541,0.00448749540373683,0.054931640625,2.212430000305176,-0.020916780456900597,0.1885145604610443,-0.02212429977953434,0.0012075211852788925,0.0,0.10413765162229538,0.6082814335823059,0.8076074489451699,7.4979248046875,1.2595793008804321,7.602062702178955,1.3867895603179932,4.672431230545044,2.7553999423980713,,,,,,
8513824000.0,408.21,25.219999313354492,6529777152.0,3620.266203066766,138.0,0.027617421001195908,2277376.0,2943.86954498291,0.0043210298754274845,0.05108642578125,2.2250866889953613,-0.02152121067047119,0.18448764085769653,-0.022250866517424583,0.000729651190340519,0.0,0.10677450150251389,0.5886906385421753,0.7947928645518925,7.679141521453857,1.2222977876663208,7.785915374755859,1.2995400428771973,4.525634050369263,2.757993459701538,,,,,,
8513824000.0,399.67,24.200000762939453,6529777152.0,3602.185143242465,139.0,0.034033939242362976,2293760.0,2948.4178953170776,0.0041237883269786835,0.03515625,2.194868326187134,-0.02125524915754795,0.22968870401382446,-0.02194868214428425,0.0006934348493814468,0.0,0.06371642649173737,0.6769393682479858,0.7286465482650201,8.025197982788086,1.2173844575881958,8.08891487121582,1.299515962600708,4.5483503341674805,2.7615561485290527,,,,,,
8513824000.0,407.6,25.34000015258789,6529777152.0,3585.3871371587456,140.0,0.027519959956407547,2310144.0,2952.9875552654266,0.004920161794871092,0.05096435546875,2.2067060470581055,-0.020767061039805412,0.16808561980724335,-0.022067062556743622,0.0013000015169382095,0.0,0.07553640753030777,0.5682023167610168,0.8086564769006916,8.083922386169434,1.270562767982483,8.15945816040039,1.2989559173583984,4.569659948348999,2.758784294128418,,,,,,
8513824000.0,404.3,24.979999542236328,6529777152.0,3602.2098790729146,141.0,0.036593854427337646,2326528.0,2957.5358743667603,0.0042095850221812725,0.04412841796875,2.221860408782959,-0.020153287798166275,0.16338548064231873,-0.022218603640794754,0.0020653195679187775,0.0,0.0974464938044548,0.5724772214889526,0.7738910940572283,7.9505720138549805,1.139257550239563,8.048019409179688,1.2039273977279663,4.548319101333618,2.766526222229004,,,,,,
8513824000.0,403.91,25.219999313354492,6529777152.0,3624.2412075354837,142.0,0.03286953270435333,2342912.0,2962.056544780731,0.004454273730516434,0.04949951171875,2.2388596534729004,-0.02093794010579586,0.1970195174217224,-0.022388597950339317,0.0014506522566080093,0.0,0.07384929805994034,0.6183075308799744,0.7558597917952715,8.04340934753418,1.1862579584121704,8.117258071899414,1.2513645887374878,4.520670413970947,2.7522130012512207,,,,,,
8513824000.0,401.84,25.110000610351562,6529777152.0,3527.5993495451507,143.0,0.027798648923635483,2359296.0,2966.701063156128,0.0047029731795191765,0.0533447265625,2.188566207885742,-0.02006455697119236,0.1457652896642685,-0.021885661408305168,0.0018211065325886011,0.0,0.08771511167287827,0.5221217274665833,0.8158637638422886,7.998025894165039,1.1632715463638306,8.08574104309082,1.2167541980743408,4.6445183753967285,2.763827085494995,,,,,,
8513824000.0,399.71,25.219999313354492,6529777152.0,3611.916995707347,144.0,0.03441671282052994,2375680.0,2971.237158536911,0.002921618055552244,0.0277099609375,2.1763834953308105,-0.019413642585277557,0.23254138231277466,-0.021763833239674568,0.0023501869291067123,0.0,0.045454174280166626,0.6781845688819885,0.7610366183739803,8.323456764221191,1.2391438484191895,8.368910789489746,1.3873348236083984,4.536095380783081,2.7625718116760254,,,,,,
8513824000.0,402.05,25.739999771118164,6529777152.0,3661.1969432608716,145.0,0.03060709312558174,2392064.0,2975.712197780609,0.005253015551716089,0.0633544921875,2.187993049621582,-0.02089475467801094,0.17085272073745728,-0.021879930049180984,0.0009851744398474693,0.0,0.06675093621015549,0.5816966891288757,0.804662914468416,8.317718505859375,1.248276948928833,8.384468078613281,1.3161425590515137,4.47503924369812,2.741340398788452,,,,,,
8513824000.0,394.97,24.860000610351562,6529777152.0,3623.39713341337,146.0,0.03217746317386627,2408448.0,2980.233921289444,0.006130010820925236,0.0675048828125,2.15786075592041,-0.018658548593521118,0.18430233001708984,-0.021578606218099594,0.002920054364949465,0.0,0.04089836776256561,0.6087349057197571,0.7148195848580852,8.474199295043945,1.0849595069885254,8.515098571777344,1.139906883239746,4.521723508834839,2.757085084915161,,,,,,
8513824000.0,405.11,25.540000915527344,6529777152.0,3493.2285514032087,147.0,0.03259478136897087,2424832.0,2984.9241383075714,0.00533682107925415,0.0618896484375,2.1727404594421387,-0.018881620839238167,0.1860261857509613,-0.02172740548849106,0.002845786977559328,0.0,0.044082894921302795,0.6026589274406433,0.7605978088945264,8.442400932312012,1.11359703540802,8.48648452758789,1.2317111492156982,4.690217018127441,2.752908945083618,,,,,,
8513824000.0,404.43,25.170000076293945,6529777152.0,3629.1738119738825,148.0,0.030355583876371384,2441216.0,2989.4386644363403,0.004015874117612839,0.04107666015625,2.1640448570251465,-0.01955687254667282,0.2023683488368988,-0.02164044789969921,0.0020835762843489647,0.0,0.07085318118333817,0.6197813153266907,0.7218152546907124,8.584753036499023,1.0983933210372925,8.655607223510742,1.1750919818878174,4.514526128768921,2.755079984664917,,,,,,
8513824000.0,411.21,26.440000534057617,6529777152.0,3575.324988486242,149.0,0.034003742039203644,2457600.0,2994.0211849212646,0.0075353169813752174,0.090576171875,2.163935899734497,-0.018811915069818497,0.17205491662025452,-0.02163935825228691,0.0028274403885006905,0.0,0.0691261738538742,0.5805540084838867,0.7191831985298289,8.393264770507812,1.0324457883834839,8.462390899658203,1.095547080039978,4.582520484924316,2.7583115100860596,,,,,,
8513824000.0,411.36,27.079999923706055,6529777152.0,3548.3308459544355,150.0,0.03459514304995537,2473984.0,2998.638567209244,0.005048627033829689,0.0540771484375,2.132382392883301,-0.01897471770644188,0.1127641350030899,-0.021323826164007187,0.0023491044994443655,0.0,0.1237424984574318,0.46615660190582275,0.8022347917098925,8.492389678955078,1.0233604907989502,8.616132736206055,1.0482375621795654,4.617382287979126,2.770169734954834,,,,,,
8513824000.0,414.81,27.1200008392334,6529777152.0,3511.971315684317,151.0,0.030458590015769005,2490368.0,3003.303753376007,0.004272365011274815,0.05181884765625,2.1234657764434814,-0.019739560782909393,0.1566205769777298,-0.021234653890132904,0.001495096366852522,0.0,0.05368607118725777,0.5530818104743958,0.7775506771560319,8.455351829528809,1.071178913116455,8.509037971496582,1.1726665496826172,4.665186166763306,2.7657341957092285,,,,,,
8513824000.0,414.79,27.030000686645508,6529777152.0,3544.134257696521,152.0,0.03447841852903366,2506752.0,3007.926603078842,0.0063750967383384705,0.06494140625,2.1532819271087646,-0.017841096967458725,0.14875096082687378,-0.0215328186750412,0.0036917217075824738,0.0,0.04447415471076965,0.5426321625709534,0.7468615396139602,8.470431327819824,1.0055707693099976,8.51490592956543,1.0785138607025146,4.622849702835083,2.759707450866699,,,,,,
8513824000.0,403.88,25.09000015258789,6529777152.0,3509.9796517697746,153.0,0.027988146990537643,2523136.0,3012.5944364070892,0.005306609906256199,0.05670166015625,2.182093620300293,-0.019940854981541634,0.1905883103609085,-0.02182093635201454,0.0018800785765051842,0.0,0.023955823853611946,0.6153265237808228,0.7256289080603857,8.506864547729492,1.0645763874053955,8.530820846557617,1.1747252941131592,4.66783332824707,2.7553281784057617,,,,,,
8513824000.0,404.54,25.360000610351562,6529777152.0,3507.60796037067,154.0,0.034110166132450104,2539520.0,3017.2654259204865,0.004433785565197468,0.042724609375,2.189929962158203,-0.022061094641685486,0.14011645317077637,-0.021899297833442688,-0.00016179680824279785,0.0,0.04975040256977081,0.5236918330192566,0.7158627867145664,8.67485237121582,0.9289504885673523,8.724602699279785,0.9824485778808594,4.670989513397217,2.7550833225250244,,,,,,
8513824000.0,408.31,25.260000228881836,6529777152.0,3548.3837967747877,155.0,0.028136517852544785,2555904.0,3021.882739305496,0.002753187669441104,0.02142333984375,2.225552797317505,-0.01950623095035553,0.22796416282653809,-0.02225552871823311,0.002749301493167877,0.0,-0.009562691673636436,0.6567500233650208,0.695108390575694,8.552038192749023,1.0252856016159058,8.542475700378418,1.1893945932388306,4.617313385009766,2.779648542404175,,,,,,
8513824000.0,408.19,25.5,6529777152.0,3569.73891493344,156.0,0.032983556389808655,2572288.0,3026.472430706024,0.00766627537086606,0.07940673828125,2.193718194961548,-0.018279165029525757,0.17448216676712036,-0.021937182173132896,0.003658013418316841,0.0,0.026394132524728775,0.5657306909561157,0.7088819249655957,8.552153587341309,0.9855332374572754,8.578547477722168,1.0485159158706665,4.589691400527954,2.7653141021728516,,,,,,
8513824000.0,406.66,25.260000228881836,6529777152.0,3520.936679580794,157.0,0.03075958602130413,2588672.0,3031.1257379055023,0.005237565375864506,0.050537109375,2.229034900665283,-0.01993107981979847,0.16445349156856537,-0.022290349006652832,0.002359264064580202,0.0,0.020973673090338707,0.556952714920044,0.7530876543345215,8.85068130493164,1.0449804067611694,8.871654510498047,1.1208419799804688,4.653307199478149,2.7495856285095215,,,,,,
8513824000.0,403.98,24.649999618530273,6529777152.0,3552.0032187431416,158.0,0.028226487338542938,2605056.0,3035.738346338272,0.004100946709513664,0.0389404296875,2.213646411895752,-0.01978137344121933,0.2165941447019577,-0.022136464715003967,0.0023550894111394882,0.0,0.007791885174810886,0.640333354473114,0.653417663189079,8.971580505371094,0.9431049227714539,8.979373931884766,1.087691307067871,4.612608432769775,2.757628917694092,,,,,,
8513824000.0,409.38,25.270000457763672,6529777152.0,3531.9055117624603,159.0,0.03633934631943703,2621440.0,3040.3772020339966,0.004466869402676821,0.04443359375,2.2218070030212402,-0.021231720224022865,0.14704488217830658,-0.022218069061636925,0.0009863479062914848,0.0,0.03460260108113289,0.5324856042861938,0.7845334391232068,9.022052764892578,1.0546660423278809,9.056655883789062,1.1471513509750366,4.638855695724487,2.761082649230957,,,,,,
,,,,,,,,,,,,,,,,,,,,,,,,,,0.025035755708813667,0.5990399122238159,0.4751659631729126,0.025035755708813667,0.5990399122238159,0.4751659631729126
,,,,,,,,,,,,,,,,,,,,,,,,,,0.01675633154809475,0.487118661403656,0.44180238246917725,0.01675633154809475,0.487118661403656,0.44180238246917725
,,,,,,,,,,,,,,,,,,,,,,,,,,0.016117237508296967,0.4602111876010895,0.42666658759117126,0.016117237508296967,0.4602111876010895,0.42666658759117126
,,,,,,,,,,,,,,,,,,,,,,,,,,0.015113277360796928,0.4291653633117676,0.4046748876571655,0.015113277360796928,0.4291653633117676,0.4046748876571655
,,,,,,,,,,,,,,,,,,,,,,,,,,0.014858581125736237,0.42645150423049927,0.408670574426651,0.014858581125736237,0.42645150423049927,0.408670574426651
,,,,,,,,,,,,,,,,,,,,,,,,,,0.014731082133948803,0.39948245882987976,0.38754722476005554,0.014731082133948803,0.39948245882987976,0.38754722476005554
8513824000.0,410.85,26.020000457763672,6327188480.0,28.209950880608936,160.0,0.032192833721637726,2637824.0,3621.16516828537,0.004267203155905008,0.0474853515625,2.2378430366516113,-0.021506063640117645,0.1259659081697464,-0.022378429770469666,0.0008723638020455837,0.0,0.07010194659233093,0.49697065353393555,0.8242775106049152,8.258918762207031,1.1090480089187622,8.329020500183105,1.1855390071868896,580.7879662513733,2.8827319145202637,,,,,,
8513824000.0,401.37,25.530000686645508,6529777152.0,3579.17371374809,161.0,0.02953018993139267,2654208.0,3625.7427611351013,0.00448203831911087,0.0487060546875,2.2161002159118652,-0.020496666431427002,0.18208777904510498,-0.022161003202199936,0.0016643386334180832,0.0,0.021364495158195496,0.599356472492218,0.7842197849108505,8.239482879638672,1.1367230415344238,8.260847091674805,1.290266752243042,4.577592849731445,2.7569472789764404,,,,,,
8513824000.0,404.58,25.200000762939453,6529777152.0,3495.7209514415636,162.0,0.030489368364214897,2670592.0,3630.4296340942383,0.004485464654862881,0.05523681640625,2.2080318927764893,-0.02146191895008087,0.12812690436840057,-0.02208031713962555,0.0006183972582221031,0.0,0.09115973860025406,0.4988698363304138,0.8339837667602155,8.34157943725586,1.2141518592834473,8.4327392578125,1.224366545677185,4.686872959136963,2.760744333267212,,,,,,
8513824000.0,405.42,25.809999465942383,6529777152.0,3647.2570680341223,163.0,0.03833897039294243,2686976.0,3634.921777009964,0.006084581837058067,0.06781005859375,2.184114456176758,-0.02003815397620201,0.1398243010044098,-0.02184114418923855,0.0018029920756816864,0.0,0.09686514735221863,0.5291088819503784,0.8172441401780933,8.549015998840332,1.1611310243606567,8.645881652832031,1.2376865148544312,4.492142915725708,2.7673606872558594,,,,,,
8513824000.0,414.11,26.34000015258789,6529777152.0,3542.652491343453,164.0,0.028556695207953453,2703360.0,3639.5465602874756,0.00519513338804245,0.052001953125,2.203538656234741,-0.020532146096229553,0.1492014229297638,-0.0220353826880455,0.0015032440423965454,0.0,0.0501156710088253,0.545673131942749,0.8058616818697948,8.37022590637207,1.1580884456634521,8.420343399047852,1.238450288772583,4.624783277511597,2.7623796463012695,,,,,,
8513824000.0,419.08,27.079999923706055,6529777152.0,3591.257100377498,165.0,0.03591126203536987,2719744.0,3644.1087510585785,0.007185237482190132,0.072265625,2.1855525970458984,-0.01804320514202118,0.12100467830896378,-0.02185552567243576,0.0038123223930597305,0.0,0.08039703965187073,0.4878358244895935,0.8236394616173519,8.325956344604492,1.0863455533981323,8.406353950500488,1.1616450548171997,4.562190771102905,2.752302885055542,,,,,,
8513824000.0,416.77,26.670000076293945,6529777152.0,3612.7260999683413,166.0,0.030484385788440704,2736128.0,3648.643830537796,0.006449264474213123,0.07257080078125,2.2031259536743164,-0.02097580023109913,0.1563090831041336,-0.022031256929039955,0.0010554564651101828,0.0,0.0591299831867218,0.553902268409729,0.819581221786454,8.372856140136719,1.168271780014038,8.431985855102539,1.3040406703948975,4.535079479217529,2.749870777130127,,,,,,
8513824000.0,410.75,25.739999771118164,6529777152.0,3675.245553197124,167.0,0.03164537250995636,2752512.0,3653.1017639636993,0.004388495348393917,0.04443359375,2.208714246749878,-0.019830215722322464,0.13592103123664856,-0.022087138146162033,0.002256928011775017,0.0,0.0613725520670414,0.5203423500061035,0.7958990185795058,8.679704666137695,1.0617049932479858,8.741077423095703,1.1517730951309204,4.45793342590332,2.7478673458099365,,,,,,
8513824000.0,408.26,26.059999465942383,6529777152.0,3636.007710172846,168.0,0.034675925970077515,2768896.0,3657.6078050136566,0.005058182403445244,0.057373046875,2.210564613342285,-0.0196225568652153,0.13354983925819397,-0.02210564725100994,0.002483091317117214,0.0,0.04417961835861206,0.5128994584083557,0.8137895201519385,8.443644523620605,1.1000014543533325,8.487823486328125,1.188585877418518,4.506041049957275,2.751915693283081,,,,,,
8513824000.0,413.24,26.940000534057617,6529777152.0,3477.9363562154645,169.0,0.029245784506201744,2785280.0,3662.3186445236206,0.003743027104064822,0.03631591796875,2.210486888885498,-0.02045902982354164,0.10874183475971222,-0.022104870527982712,0.0016458416357636452,0.0,0.10112999379634857,0.46899259090423584,0.8321032290947645,8.741048812866211,1.1226046085357666,8.842179298400879,1.1445804834365845,4.710839509963989,2.7551887035369873,,,,,,
8513824000.0,413.73,27.239999771118164,6529777152.0,3585.115726559597,170.0,0.035348065197467804,2801664.0,3666.888650417328,0.0053034378215670586,0.05560302734375,2.200446844100952,-0.021589230746030807,0.1442435085773468,-0.022004468366503716,0.0004152348265051842,0.0,0.05304936692118645,0.5347203016281128,0.7648123463232633,8.813644409179688,1.0456515550613403,8.866694450378418,1.1026057004928589,4.570005893707275,2.763777256011963,,,,,,
8513824000.0,412.71,26.760000228881836,6529777152.0,3562.387287115672,171.0,0.03224906325340271,2818048.0,3671.487813472748,0.0052824243903160095,0.05987548828125,2.20505952835083,-0.02048027142882347,0.16579116880893707,-0.02205059677362442,0.0015703272074460983,0.0,0.03607981652021408,0.5767134428024292,0.7345551175882161,8.677026748657227,1.0029809474945068,8.713106155395508,1.1193652153015137,4.599163055419922,2.747742176055908,,,,,,
8513824000.0,403.7,26.299999237060547,6529777152.0,3542.8797003253626,172.0,0.0327487513422966,2834432.0,3676.112300157547,0.008731651119887829,0.091552734375,2.202871084213257,-0.017871323972940445,0.1935276985168457,-0.022028708830475807,0.004157385788857937,0.0,0.03738866373896599,0.6159032583236694,0.7555868404932184,8.503508567810059,1.0882022380828857,8.54089641571045,1.2458040714263916,4.624486684799194,2.756683826446533,,,,,,
8513824000.0,402.45,26.329999923706055,6529777152.0,3459.700114213263,173.0,0.03584342077374458,2850816.0,3680.847970724106,0.006596926134079695,0.07196044921875,2.194706678390503,-0.020872360095381737,0.16420522332191467,-0.021947063505649567,0.0010747029446065426,0.0,0.07037939131259918,0.5679864883422852,0.7820966466715775,8.57925796508789,1.1057697534561157,8.649637222290039,1.2167601585388184,4.735670566558838,2.7532289028167725,,,,,,
8513824000.0,402.3,26.729999542236328,6529777152.0,3579.8951068160377,174.0,0.02888305112719536,2867200.0,3685.4246411323547,0.004007464740425348,0.03692626953125,2.1940057277679443,-0.019361672922968864,0.10597115755081177,-0.02194005623459816,0.00257838424295187,0.0,0.08065807819366455,0.4564817249774933,0.8187794626454921,8.490608215332031,1.0145686864852905,8.571266174316406,1.0723130702972412,4.576670408248901,2.7449212074279785,,,,,,
8513824000.0,402.75,26.59000015258789,6529777152.0,3648.122560863512,175.0,0.036940380930900574,2883584.0,3689.915718317032,0.005289079155772924,0.0560302734375,2.1924073696136475,-0.019160186871886253,0.1668982058763504,-0.02192407287657261,0.002763888332992792,0.0,0.051745325326919556,0.5737606883049011,0.7744783375678416,8.644431114196777,1.071083903312683,8.696176528930664,1.2081912755966187,4.491077184677124,2.748476505279541,,,,,,
8513824000.0,407.99,26.860000610351562,6529777152.0,3525.444868204457,176.0,0.030648531392216682,2899968.0,3694.563075065613,0.006133798509836197,0.065673828125,2.171863079071045,-0.018883565440773964,0.16751837730407715,-0.021718628704547882,0.002835063263773918,0.0,0.07319684326648712,0.5701987147331238,0.7403714639888593,8.592029571533203,1.0233378410339355,8.665225982666016,1.1190465688705444,4.647356748580933,2.764019012451172,,,,,,
8513824000.0,396.37,25.8700008392334,6529777152.0,3609.628744125379,177.0,0.03354482352733612,2916352.0,3699.1020460128784,0.004189052619040012,0.04656982421875,2.1934683322906494,-0.01981293596327305,0.22195571660995483,-0.021934684365987778,0.002121744677424431,0.0,0.010386246256530285,0.6483412981033325,0.7091027847900442,8.797832489013672,1.0008115768432617,8.808218955993652,1.2020814418792725,4.538970947265625,2.7582590579986572,,,,,,
8513824000.0,392.38,25.360000610351562,6529777152.0,3491.3364831131985,178.0,0.033514756709337234,2932736.0,3703.7948048114777,0.003931920975446701,0.038818359375,2.168543577194214,-0.020827021449804306,0.15283221006393433,-0.021685434505343437,0.0008584149181842804,0.0,0.05234110727906227,0.552580714225769,0.7360737978682166,8.888936996459961,0.976749837398529,8.941278457641602,1.0756170749664307,4.692758798599243,2.7607994079589844,,,,,,
8513824000.0,390.02,25.979999542236328,6529777152.0,3685.654245134237,179.0,0.03356071561574936,2949120.0,3708.2401485443115,0.004628520458936691,0.04229736328125,2.1598715782165527,-0.019111884757876396,0.16908003389835358,-0.02159871533513069,0.00248683150857687,0.0,0.05733198672533035,0.5867024064064026,0.8105241350070718,8.822553634643555,1.2662272453308105,8.87988567352295,1.3478456735610962,4.445343732833862,2.750209331512451,,,,,,
8513824000.0,399.69,26.389999389648438,6529777152.0,3499.0540840158205,180.0,0.03459147363901138,2965504.0,3712.9225568771362,0.005702273920178413,0.067626953125,2.1432602405548096,-0.0187933761626482,0.2314286231994629,-0.021432597190141678,0.0026392200961709023,0.0,0.002348356880247593,0.6830132603645325,0.7850125825646059,8.929537773132324,1.275879144668579,8.931886672973633,1.473073124885559,4.682408332824707,2.8186709880828857,,,,,,
8513824000.0,396.79,25.31999969482422,6529777152.0,3659.2857765269086,181.0,0.027427922934293747,2981888.0,3717.3999333381653,0.004821709357202053,0.0423583984375,2.103646755218506,-0.019039403647184372,0.20897769927978516,-0.02103646658360958,0.00199706107378006,0.0,0.0025238324888050556,0.6552050113677979,0.7747445171992553,8.731224060058594,1.2668442726135254,8.733747482299805,1.3805060386657715,4.477376461029053,2.751685857772827,,,,,,
8513824000.0,398.92,24.530000686645508,6529777152.0,3557.86467968697,182.0,0.03233282268047333,2998272.0,3722.0049426555634,0.006877778097987175,0.07373046875,2.106727361679077,-0.020212775096297264,0.16767556965351105,-0.021067271009087563,0.0008544963784515858,0.0,0.008609961718320847,0.5745736956596375,0.7800722434130389,8.84228515625,1.1055461168289185,8.850894927978516,1.225189208984375,4.605009317398071,2.804264545440674,,,,,,
8513824000.0,408.78,25.280000686645508,6529777152.0,3618.142423321991,183.0,0.03300676494836807,3014656.0,3726.533233165741,0.005285789258778095,0.045654296875,2.0688769817352295,-0.017604272812604904,0.16033822298049927,-0.020688770338892937,0.0030844975262880325,0.0,0.030447186902165413,0.5583587884902954,0.7510021402113795,8.784286499023438,1.0238053798675537,8.814735412597656,1.1189674139022827,4.528290510177612,2.7653520107269287,,,,,,
