CpuMaxMemory,EpLenMean,EpRewMean,GpuMaxMemory,IPS_total,Iter,Misc/FrameRewMean,Misc/InteractCount,Misc/TimeElapsed,Opt/approxkl,Opt/clipfrac,Opt/entropy,Opt/loss_pi,Opt/loss_vf,Opt/negent,Opt/pg,Opt/pi_kl,VFStats/AdvMean,VFStats/AdvStd,VFStats/EV,VFStats/VpredMean,VFStats/VpredStd,VFStats/VtargMean,VFStats/VtargStd,del_time,wait_optimization,scaled/pol_distance,scaled/vf_aux,scaled/vf_true,unscaled/pol_distance,unscaled/vf_aux,unscaled/vf_true
2374140000.0,92.54,-2.5799999237060547,6317166080.0,3384.1034830480585,0.0,-0.012255342677235603,16384.0,4.841459512710571,0.004092439077794552,0.0279541015625,2.703113079071045,-0.02623588964343071,0.1554514467716217,-0.027031129226088524,0.0007952377200126648,0.0,-0.18430325388908386,0.545057475566864,-0.0033510177359221682,0.005932092200964689,0.012688087299466133,-0.17837116122245789,0.5441465377807617,4.841459512710571,2.728912115097046,,,,,,
2571560000.0,83.52,-3.069999933242798,6519754752.0,3454.4226993894945,1.0,-0.013349581509828568,32768.0,9.584364891052246,0.00034667598083615303,0.0,2.706083297729492,-0.026605460792779922,0.15844471752643585,-0.02706082910299301,0.00045536644756793976,0.0,-0.16648022830486298,0.5491496324539185,0.014746861583876725,-0.10512923449277878,0.04230858385562897,-0.27160948514938354,0.5532440543174744,4.742905378341675,2.729907989501953,,,,,,
2768240000.0,87.59,-2.7899999618530273,6519754752.0,3466.7514831296508,2.0,-0.012179690413177013,49152.0,14.310403108596802,0.002582147251814604,0.0198974609375,2.698336601257324,-0.027508191764354706,0.14901502430438995,-0.026983369141817093,-0.0005248290253803134,0.0,-0.11077430099248886,0.5367249250411987,0.018964748731361114,-0.31782716512680054,0.04870377480983734,-0.4286014437675476,0.5418878197669983,4.726038217544556,2.730956792831421,,,,,,
2964920000.0,85.05,-1.9199999570846558,6519754752.0,3590.257430836732,3.0,-0.012119700200855732,65536.0,18.87386417388916,0.0005551164504140615,0.0,2.700287342071533,-0.026337221264839172,0.16645547747612,-0.02700287103652954,0.0006656469777226448,0.0,-0.099010169506073,0.5721317529678345,0.06499116041530006,-0.318753719329834,0.09529591351747513,-0.417763888835907,0.5916817784309387,4.563461065292358,2.7277660369873047,,,,,,
3161336000.0,87.62,-3.5,6519754752.0,3555.23674197528,4.0,-0.016942566260695457,81920.0,23.482277393341064,0.0004920073552057147,0.0,2.700237274169922,-0.02717687375843525,0.19730597734451294,-0.027002375572919846,-0.0001745019108057022,0.0,-0.1132415384054184,0.6078794598579407,0.10667431424908191,-0.550169825553894,0.17253544926643372,-0.6634113788604736,0.6431504487991333,4.608413219451904,2.744739532470703,,,,,,
3358016000.0,92.76,-2.490000009536743,6519754752.0,3599.6700942191487,5.0,-0.011521530337631702,98304.0,28.03380560874939,0.0001985920243896544,0.0,2.7020370960235596,-0.027230234816670418,0.14961576461791992,-0.027020366862416267,-0.00020986853633075953,0.0,-0.0823616236448288,0.54349285364151,0.07868689143497065,-0.4206525683403015,0.14852415025234222,-0.5030141472816467,0.5662265419960022,4.551528215408325,2.7381668090820312,,,,,,
3554696000.0,84.26,-2.5199999809265137,6519754752.0,3510.0348705618817,6.0,-0.012753679417073727,114688.0,32.7015655040741,0.0017729054670780897,0.01104736328125,2.691519021987915,-0.027050893753767014,0.15919871628284454,-0.026915188878774643,-0.0001357044093310833,0.0,-0.05527878180146217,0.5604615211486816,0.10805565854038102,-0.5274351835250854,0.1415984332561493,-0.5827139616012573,0.5934402346611023,4.667759895324707,2.7528529167175293,,,,,,
3752168000.0,85.73,-2.2899999618530273,6519754752.0,3375.104833656456,7.0,-0.0138218579813838,131072.0,37.555933237075806,0.0012751738540828228,0.0013427734375,2.691986083984375,-0.026792610064148903,0.17083682119846344,-0.026919862255454063,0.00012724846601486206,0.0,-0.05015003681182861,0.576874852180481,0.19185461766269418,-0.6513714790344238,0.21580909192562103,-0.7015215158462524,0.641707181930542,4.854367733001709,2.7565412521362305,,,,,,
3948848000.0,84.74,-2.4600000381469727,6519754752.0,3565.052997676265,8.0,-0.012644450180232525,147456.0,42.15165734291077,0.0027882836293429136,0.0242919921875,2.6784377098083496,-0.026674019172787666,0.1734883040189743,-0.026784375309944153,0.00011035427451133728,0.0,-0.03111860156059265,0.5626253485679626,0.1784382463365578,-0.6074414253234863,0.20519867539405823,-0.6385599970817566,0.6207248568534851,4.595724105834961,2.7433297634124756,,,,,,
4146584000.0,86.69,-2.559999942779541,6519754752.0,3567.3322866587196,9.0,-0.01401632372289896,163840.0,46.74444508552551,0.0008422087994404137,0.0,2.692786931991577,-0.027338560670614243,0.16397176682949066,-0.026927867904305458,-0.00041069090366363525,0.0,-0.01777886599302292,0.5592560768127441,0.13634686099933535,-0.7626872062683105,0.15585072338581085,-0.7804660797119141,0.6017845273017883,4.592787742614746,2.751757860183716,,,,,,
4344584000.0,81.87,-2.259999990463257,6519754752.0,3559.0126407541434,10.0,-0.012992508709430695,180224.0,51.34796905517578,0.0028829474467784166,0.02130126953125,2.6684141159057617,-0.026932809501886368,0.14748606085777283,-0.026684138923883438,-0.00024866731837391853,0.0,-0.014022313058376312,0.5437073707580566,0.22571302396151638,-0.6344753503799438,0.22806747257709503,-0.6484977006912231,0.6178944706916809,4.6035239696502686,2.759932041168213,,,,,,
4542584000.0,80.15,-2.309999942779541,6519754752.0,3565.7363304703103,11.0,-0.012121566571295261,196608.0,55.94281244277954,0.002100627403706312,0.01263427734375,2.693279504776001,-0.026564795523881912,0.14328844845294952,-0.026932794600725174,0.0003679972141981125,0.0,-0.02660522423684597,0.54013991355896,0.24820002995909218,-0.5747740268707275,0.23219631612300873,-0.6013792157173157,0.6229527592658997,4.59484338760376,2.7578773498535156,,,,,,
4740584000.0,84.48,-2.1500000953674316,6519754752.0,3489.983778765034,12.0,-0.010921034030616283,212992.0,60.63739013671875,0.002523510716855526,0.01617431640625,2.679018259048462,-0.027261938899755478,0.13218769431114197,-0.026790184900164604,-0.00047175539657473564,0.0,0.0053263274021446705,0.5142372250556946,0.3059640293202922,-0.6092458963394165,0.3071816861629486,-0.6039195656776428,0.6172661185264587,4.694577693939209,2.756927251815796,,,,,,
4939376000.0,84.75,-2.8299999237060547,6519754752.0,3407.0270535476484,13.0,-0.012404149398207664,229376.0,65.44627475738525,0.0008088304894044995,0.00311279296875,2.68619966506958,-0.026606012135744095,0.1393653303384781,-0.026861997321248055,0.0002559870481491089,0.0,-0.008133159019052982,0.5323200821876526,0.3928422271333488,-0.5954883098602295,0.34245988726615906,-0.6036214828491211,0.6831594705581665,4.808884620666504,2.75846529006958,,,,,,
5136320000.0,84.57,-1.2699999809265137,6519754752.0,3583.7798482712433,14.0,-0.009397760033607483,245760.0,70.01798415184021,0.00036406476283445954,0.0,2.683159112930298,-0.026786070317029953,0.12607547640800476,-0.026831593364477158,4.552304744720459e-05,0.0,0.034985996782779694,0.491157591342926,0.39954404130936483,-0.578696072101593,0.37250280380249023,-0.5437101125717163,0.6338409781455994,4.571709394454956,2.7548584938049316,,,,,,
5334056000.0,79.44,-1.590000033378601,6519754752.0,3540.672952267738,15.0,-0.008889026939868927,262144.0,74.64535307884216,0.0004056374600622803,0.0,2.6729700565338135,-0.026738779619336128,0.1309547871351242,-0.026729697361588478,-9.082257747650146e-06,0.0,0.09373871982097626,0.508484959602356,0.4341974131515829,-0.7423282861709595,0.46928203105926514,-0.6485896110534668,0.675998330116272,4.627368927001953,2.7663228511810303,,,,,,
5531792000.0,77.19,-1.840000033378601,6519754752.0,3563.804474050384,16.0,-0.009976847097277641,278528.0,79.2426872253418,0.0003252503229305148,0.0,2.666621685028076,-0.026374412700533867,0.11672495305538177,-0.02666621468961239,0.00029180198907852173,0.0,0.02260413020849228,0.48036614060401917,0.4292453658406823,-0.5414340496063232,0.4083133041858673,-0.5188299417495728,0.6358397603034973,4.597334146499634,2.7811338901519775,,,,,,
5729792000.0,84.45,-1.7699999809265137,6519754752.0,3483.838820936672,17.0,-0.007596643641591072,294912.0,83.94554543495178,0.003862019395455718,0.03662109375,2.6291050910949707,-0.027607295662164688,0.09932395815849304,-0.026291050016880035,-0.0013162443647161126,0.0,0.002179653849452734,0.4362022578716278,0.42588864297661266,-0.4284041225910187,0.3378075957298279,-0.4262244701385498,0.5756915807723999,4.702858209609985,2.780677080154419,,,,,,
5927792000.0,75.16,-2.2100000381469727,6519754752.0,3464.3494571158717,18.0,-0.010997424833476543,311296.0,88.67486047744751,0.0021778952796012163,0.00958251953125,2.6293070316314697,-0.02705485187470913,0.11627942323684692,-0.0262930728495121,-0.0007617790251970291,0.0,0.003742929082363844,0.47895348072052,0.46231835546787137,-0.5184881687164307,0.392050564289093,-0.5147451758384705,0.6531767845153809,4.7293150424957275,2.7732787132263184,,,,,,
6126584000.0,79.88,-1.3700000047683716,6519754752.0,3419.4205926818568,19.0,-0.0074432529509067535,327680.0,93.4663155078888,0.0011221732711419463,0.00042724609375,2.6082420349121094,-0.02569294348359108,0.0862230658531189,-0.026082418859004974,0.0003894765395671129,0.0,0.032639745622873306,0.3943845331668854,0.5267043114506842,-0.4104129374027252,0.3954222500324249,-0.3777731657028198,0.5732625722885132,4.791455030441284,2.772446393966675,,,,,,
6323264000.0,76.09,-1.5099999904632568,6519754752.0,3470.1192900966576,20.0,-0.009380782023072243,344064.0,98.1877670288086,0.002170333405956626,0.01519775390625,2.605992317199707,-0.026298746466636658,0.08707832545042038,-0.026059921830892563,-0.00023882277309894562,0.0,0.010246926918625832,0.42184147238731384,0.5255688319236924,-0.4369423985481262,0.37406712770462036,-0.42669546604156494,0.6124386787414551,4.7214515209198,2.7780730724334717,,,,,,
6521000000.0,80.67,-1.8700000047683716,6519754752.0,3321.074939234788,21.0,-0.009807261638343334,360448.0,103.12110948562622,0.0026777770835906267,0.03668212890625,2.6174564361572266,-0.02612481638789177,0.09520479291677475,-0.02617456391453743,4.974915646016598e-05,0.0,-0.013260451145470142,0.42899981141090393,0.584274918927471,-0.3767384886741638,0.4415091574192047,-0.3899989128112793,0.6653558015823364,4.933342456817627,2.9488961696624756,,,,,,
6718736000.0,76.36,-1.6200000047683716,6519754752.0,3482.6955912346493,22.0,-0.009130338206887245,376832.0,107.82551145553589,0.004132086411118507,0.04400634765625,2.633957862854004,-0.02654077485203743,0.08430741727352142,-0.0263395793735981,-0.00020119547843933105,0.0,0.023610547184944153,0.41079390048980713,0.6374758235883795,-0.42392468452453613,0.5286789536476135,-0.4003141522407532,0.6822686791419983,4.704401969909668,2.774630069732666,,,,,,
6916736000.0,77.14,-1.2599999904632568,6519754752.0,3442.4766752395276,23.0,-0.007986112497746944,393216.0,112.58487558364868,0.003877694718539715,0.0355224609375,2.5960423946380615,-0.026232484728097916,0.0958741083741188,-0.025960423052310944,-0.0002720635384321213,0.0,0.030004743486642838,0.4000992178916931,0.6603287740429165,-0.40964430570602417,0.5604207515716553,-0.37963953614234924,0.6864964365959167,4.759364128112793,2.771115779876709,,,,,,
7114472000.0,77.51,-1.909999966621399,6519754752.0,3485.9024171204155,24.0,-0.010040822438895702,409600.0,117.2849497795105,0.001436116872355342,0.002685546875,2.6347107887268066,-0.02604028582572937,0.10686031728982925,-0.02634710632264614,0.00030682049691677094,0.0,0.08502433449029922,0.4436635673046112,0.6505238874259631,-0.6446182131767273,0.5746864676475525,-0.559593915939331,0.750490128993988,4.700074195861816,2.7825570106506348,,,,,,
7313264000.0,78.49,-1.5,6519754752.0,3440.2139004322826,25.0,-0.008582879789173603,425984.0,122.0474443435669,0.0022849326487630606,0.0123291015625,2.6181623935699463,-0.025993334129452705,0.1050066202878952,-0.026181623339653015,0.00018828758038580418,0.0,0.07326652854681015,0.4367149770259857,0.6830124571343947,-0.6372047662734985,0.685416042804718,-0.5639382600784302,0.7756699323654175,4.7624945640563965,2.885226249694824,,,,,,
7510472000.0,79.44,-1.5800000429153442,6519754752.0,3393.5282639797933,26.0,-0.009628607891499996,442368.0,126.87545776367188,0.0012242523953318596,0.00506591796875,2.6138532161712646,-0.02632101997733116,0.09347669780254364,-0.026138532906770706,-0.0001824852079153061,0.0,0.05584283918142319,0.4202726185321808,0.66783068785773,-0.5510499477386475,0.5668471455574036,-0.4952070713043213,0.7292078137397766,4.8280134201049805,2.9561915397644043,,,,,,
7708208000.0,81.84,-1.6799999475479126,6519754752.0,3489.8855893848167,27.0,-0.008791427128016949,458752.0,131.5701675415039,0.001993810757994652,0.01617431640625,2.5817432403564453,-0.026192983612418175,0.08786148577928543,-0.02581743337213993,-0.0003755501820705831,0.0,0.07279060781002045,0.4185812473297119,0.7256592111275411,-0.5917888879776001,0.6654024124145508,-0.5189982652664185,0.7991616129875183,4.694709777832031,2.7921175956726074,,,,,,
7906208000.0,75.49,-1.7599999904632568,6519754752.0,3486.398666635144,28.0,-0.009238466620445251,475136.0,136.26957273483276,0.0026533680502325296,0.01531982421875,2.609990358352661,-0.024471422657370567,0.07577883452177048,-0.026099901646375656,0.0016284780576825142,0.0,0.04162811487913132,0.39258524775505066,0.7554665368617937,-0.4213466942310333,0.7040367722511292,-0.3797185719013214,0.793898344039917,4.699405193328857,2.7687413692474365,,,,,,
8103944000.0,74.32,-1.4700000286102295,6519754752.0,3508.01961422619,29.0,-0.009028654545545578,491520.0,140.94001412391663,0.0030585802160203457,0.026611328125,2.5959932804107666,-0.026083897799253464,0.09091853350400925,-0.025959935039281845,-0.00012396182864904404,0.0,0.010052205063402653,0.4162931740283966,0.6599077214066901,-0.3652836084365845,0.6232505440711975,-0.3552314043045044,0.7138400673866272,4.670441389083862,2.786182403564453,,,,,,
8301944000.0,79.98,-1.5499999523162842,6519754752.0,3389.4296800195198,30.0,-0.010176962241530418,507904.0,145.77386569976807,0.0030293345917016268,0.019287109375,2.61623477935791,-0.02553475834429264,0.09358840435743332,-0.026162344962358475,0.0006275842897593975,0.0,-0.008749764412641525,0.42285385727882385,0.6971860399592722,-0.42360782623291016,0.6059063673019409,-0.4323576092720032,0.7684265375137329,4.83385157585144,2.78332781791687,,,,,,
8500736000.0,75.39,-1.309999942779541,6519754752.0,3441.8482112345246,31.0,-0.00928896851837635,524288.0,150.53409886360168,0.003691268153488636,0.03509521484375,2.544450521469116,-0.023992963135242462,0.06658060848712921,-0.025444505736231804,0.0014515407383441925,0.0,-0.014277055859565735,0.3653712868690491,0.6975352876656582,-0.2375493049621582,0.48315322399139404,-0.25182634592056274,0.6643502116203308,4.760233163833618,2.7694480419158936,,,,,,
,,,,,,,,,,,,,,,,,,,,,,,,,,0.0024006718304008245,0.15441639721393585,0.12870457768440247,0.0024006718304008245,0.15441639721393585,0.12870457768440247
,,,,,,,,,,,,,,,,,,,,,,,,,,0.002100192941725254,0.11012637615203857,0.10592448711395264,0.002100192941725254,0.11012637615203857,0.10592448711395264
,,,,,,,,,,,,,,,,,,,,,,,,,,0.0019485086668282747,0.09692942351102829,0.0972151905298233,0.0019485086668282747,0.09692942351102829,0.0972151905298233
,,,,,,,,,,,,,,,,,,,,,,,,,,0.0013597573852166533,0.09064877778291702,0.09080035239458084,0.0013597573852166533,0.09064877778291702,0.09080035239458084
,,,,,,,,,,,,,,,,,,,,,,,,,,0.0012202868238091469,0.08855979144573212,0.08874117583036423,0.0012202868238091469,0.08855979144573212,0.08874117583036423
,,,,,,,,,,,,,,,,,,,,,,,,,,0.0011378226336091757,0.08603464066982269,0.086553193628788,0.0011378226336091757,0.08603464066982269,0.086553193628788
8512744000.0,77.4,-1.2699999809265137,6327188480.0,28.082358716762418,32.0,-0.0089647825807333,540672.0,733.9608745574951,0.0032445185352116823,0.02947998046875,2.542694330215454,-0.026564937084913254,0.054513394832611084,-0.025426942855119705,-0.0011379956267774105,0.0,0.02913808450102806,0.3330886960029602,0.7694552218576558,-0.44753319025039673,0.5491621494293213,-0.41839510202407837,0.6937169432640076,583.4267756938934,2.8538920879364014,,,,,,
8512744000.0,76.9,-1.0399999618530273,6529777152.0,3573.952342709274,33.0,-0.005121734458953142,557056.0,738.5451550483704,0.004980986937880516,0.052734375,2.579953908920288,-0.024630604311823845,0.05483806133270264,-0.02579953521490097,0.0011689318343997002,0.0,0.08157418668270111,0.3319789171218872,0.7438998953849274,-0.4376768469810486,0.5946401357650757,-0.3561026453971863,0.6560027003288269,4.584280490875244,2.7996292114257812,,,,,,
8512744000.0,77.92,-0.5099999904632568,6529777152.0,3518.8016779158743,34.0,-0.003925888799130917,573440.0,743.2012856006622,0.0008748447289690375,0.00494384765625,2.5711076259613037,-0.026074765250086784,0.045116305351257324,-0.025711074471473694,-0.00036368961445987225,0.0,0.07154972851276398,0.309454083442688,0.745766704553162,-0.3046601414680481,0.5727347135543823,-0.23311041295528412,0.6137337684631348,4.65613055229187,2.791771173477173,,,,,,
8512744000.0,76.02,-0.9399999976158142,6529777152.0,3480.640901488806,35.0,-0.004186658654361963,589824.0,747.9084646701813,0.0023521664552390575,0.02154541015625,2.5719292163848877,-0.026870328933000565,0.04318101704120636,-0.0257192924618721,-0.0011510360054671764,0.0,0.037145622074604034,0.2967761158943176,0.7160469192334766,-0.17348039150238037,0.47791773080825806,-0.13633477687835693,0.556936502456665,4.707179069519043,2.7785181999206543,,,,,,
8512744000.0,76.27,-0.6600000262260437,6529777152.0,3496.9215068976437,36.0,-0.004512822721153498,606208.0,752.5937285423279,0.004646896384656429,0.06024169921875,2.54542875289917,-0.02794809639453888,0.03463379293680191,-0.025454286485910416,-0.0024938094429671764,0.0,0.009968121536076069,0.27194374799728394,0.752992222545722,-0.1414160132408142,0.4625793993473053,-0.1314479112625122,0.5471718311309814,4.6852638721466064,2.7639148235321045,,,,,,
8512744000.0,76.16,0.019999999552965164,6529777152.0,3549.651973705722,37.0,0.0005980422138236463,622592.0,757.2093923091888,0.004696912132203579,0.0513916015625,2.5272128582000732,-0.026215186342597008,0.030757872387766838,-0.025272127240896225,-0.0009430595673620701,0.0,0.051333196461200714,0.26211923360824585,0.7127368880067355,-0.07545741647481918,0.470205157995224,-0.02412421628832817,0.48905640840530396,4.615663766860962,2.797253370285034,,,,,,
8512744000.0,80.77,0.14000000059604645,6529777152.0,3541.8012647810897,38.0,0.0003911872045136988,638976.0,761.8352870941162,0.004915458150207996,0.05706787109375,2.572129964828491,-0.02533448487520218,0.034335628151893616,-0.025721298530697823,0.00038681429577991366,0.0,0.023490600287914276,0.2694833278656006,0.6673950968486433,0.011720587499439716,0.4038551151752472,0.03521118685603142,0.467269629240036,4.625894784927368,2.7591965198516846,,,,,,
8512744000.0,78.63,0.20000000298023224,6529777152.0,3538.821363499921,39.0,0.001604697434231639,655360.0,766.4650771617889,0.004402009304612875,0.05322265625,2.5810770988464355,-0.027150161564350128,0.03123592399060726,-0.02581077255308628,-0.0013393883127719164,0.0,0.01774788647890091,0.25343775749206543,0.6929114164857486,0.07150977849960327,0.3602185845375061,0.08925765752792358,0.4573403000831604,4.6297900676727295,2.7645692825317383,,,,,,
8512744000.0,80.03,0.3400000035762787,6529777152.0,3542.620531003269,40.0,0.0018279278883710504,671744.0,771.0899021625519,0.00504152849316597,0.0594482421875,2.5632238388061523,-0.028112493455410004,0.03016621060669422,-0.025632238015532494,-0.0024802563712000847,0.0,0.012515516951680183,0.24885419011116028,0.6754098656028341,0.11785843968391418,0.35150253772735596,0.13037395477294922,0.43679460883140564,4.6248250007629395,2.768228054046631,,,,,,
8512744000.0,76.83,0.7900000214576721,6529777152.0,3453.152753777128,41.0,0.0036502291914075613,688128.0,775.8345518112183,0.005329771898686886,0.06451416015625,2.52888822555542,-0.026876412332057953,0.02464352920651436,-0.025288881734013557,-0.0015875305980443954,0.0,0.024851098656654358,0.22592468559741974,0.7249446737476599,0.11291563510894775,0.3951472342014313,0.1377667337656021,0.4307781457901001,4.744649648666382,2.781447410583496,,,,,,
8512744000.0,87.52,0.7900000214576721,6529777152.0,3622.4451794465576,42.0,0.004659500904381275,704512.0,780.3574635982513,0.006189887411892414,0.07293701171875,2.559025287628174,-0.025495903566479683,0.027151785790920258,-0.025590253993868828,9.43504273891449e-05,0.0,0.022504614666104317,0.23010924458503723,0.7083845203774941,0.18702936172485352,0.3382519781589508,0.20953398942947388,0.4261169135570526,4.522911787033081,2.7739057540893555,,,,,,
8512744000.0,84.3,0.8299999833106995,6529777152.0,3418.9044435300098,43.0,0.005119843874126673,720896.0,785.1496419906616,0.00539693608880043,0.0628662109375,2.510746955871582,-0.024768201634287834,0.028506312519311905,-0.02510746754705906,0.000339265912771225,0.0,0.03066672757267952,0.24046939611434937,0.6892339991211576,0.18891717493534088,0.37907010316848755,0.2195838987827301,0.43136322498321533,4.792178392410278,2.7631027698516846,,,,,,
8512744000.0,84.32,0.9800000190734863,6529777152.0,3612.070585610877,44.0,0.005211195442825556,737280.0,789.6855444908142,0.010263453237712383,0.10797119140625,2.514709949493408,-0.020287688821554184,0.01932603120803833,-0.025147099047899246,0.004859406966716051,0.0,0.019427597522735596,0.19493718445301056,0.7591428976866644,0.2461947202682495,0.3422236740589142,0.2656223177909851,0.3972052037715912,4.535902500152588,2.7634449005126953,,,,,,
8512744000.0,90.13,1.0700000524520874,6529777152.0,3510.9964580152237,45.0,0.0061462800949811935,753664.0,794.3520259857178,0.005032229237258434,0.05810546875,2.5548856258392334,-0.02420317940413952,0.02481147088110447,-0.02554885298013687,0.0013456735759973526,0.0,0.025782786309719086,0.22685301303863525,0.7222771954224187,0.19182324409484863,0.3396938443183899,0.21760600805282593,0.4304659068584442,4.6664814949035645,2.7853431701660156,,,,,,
8512744000.0,85.27,1.0199999809265137,6529777152.0,3557.23168324909,46.0,0.006995962932705879,770048.0,798.9578547477722,0.007790843024849892,0.08538818359375,2.531399726867676,-0.023011475801467896,0.028561342507600784,-0.02531399577856064,0.0023025181144475937,0.0,0.04142732173204422,0.23839294910430908,0.665789277597665,0.25726887583732605,0.3511829674243927,0.29869621992111206,0.4123663604259491,4.605828762054443,2.766719102859497,,,,,,
8512744000.0,87.37,1.3600000143051147,6529777152.0,3486.084028758789,47.0,0.007400353439152241,786432.0,803.6576840877533,0.004656370263546705,0.0526123046875,2.5318925380706787,-0.022900795564055443,0.030331140384078026,-0.025318924337625504,0.00241813063621521,0.0,0.04049839451909065,0.24822139739990234,0.7396829674370032,0.2968543469905853,0.3984413743019104,0.3373527228832245,0.4865056574344635,4.699829339981079,2.7653205394744873,,,,,,
8512744000.0,89.42,1.2400000095367432,6529777152.0,3545.377997387895,48.0,0.007433155085891485,802816.0,808.2789120674133,0.004557358101010323,0.05377197265625,2.527137041091919,-0.026149600744247437,0.030413398519158363,-0.025271369144320488,-0.0008782306686043739,0.0,0.025526918470859528,0.2513648271560669,0.7236876859919106,0.39681071043014526,0.42032748460769653,0.4223376512527466,0.47819429636001587,4.621227979660034,2.763312816619873,,,,,,
8512744000.0,96.28,1.4700000286102295,6529777152.0,3512.222250128042,49.0,0.006973227486014366,819200.0,812.943764925003,0.004992915317416191,0.0577392578125,2.508608341217041,-0.02336064726114273,0.03891175985336304,-0.025086088106036186,0.001725437119603157,0.0,0.024200281128287315,0.28083130717277527,0.6836839570722681,0.3749604821205139,0.3971068561077118,0.3991607427597046,0.49932679533958435,4.664852857589722,2.7702276706695557,,,,,,
8512744000.0,90.6,1.6399999856948853,6529777152.0,3621.2782670006923,50.0,0.00948694534599781,835584.0,817.4681341648102,0.007788536138832569,0.08892822265625,2.490412950515747,-0.022602364420890808,0.029982952401041985,-0.02490413188934326,0.002301763743162155,0.0,0.028716634958982468,0.23540231585502625,0.7780159896763287,0.44966453313827515,0.43487316370010376,0.4783811569213867,0.4996316134929657,4.524369239807129,2.778836965560913,,,,,,
8512744000.0,89.64,1.3600000143051147,6529777152.0,3489.728568754524,51.0,0.008301971480250359,851968.0,822.1630551815033,0.005074770655483007,0.06329345703125,2.4918532371520996,-0.025046274065971375,0.03333394229412079,-0.024918533861637115,-0.0001277421833947301,0.0,0.0012982519110664725,0.25590601563453674,0.7738970246481851,0.47227323055267334,0.45908287167549133,0.4735714793205261,0.5381796360015869,4.694921016693115,2.7680184841156006,,,,,,
8512744000.0,97.54,1.7699999809265137,6529777152.0,3419.9103469050697,52.0,0.009969329461455345,868352.0,826.9538240432739,0.0033376894425600767,0.03466796875,2.492196559906006,-0.02452288195490837,0.02797449380159378,-0.02492196299135685,0.00039908173494040966,0.0,0.03275078907608986,0.22567801177501678,0.836408342850383,0.44420385360717773,0.5088698267936707,0.4769546687602997,0.5579672455787659,4.79076886177063,2.9270923137664795,,,,,,
8512744000.0,89.37,1.7100000381469727,6529777152.0,3481.756673920213,53.0,0.010507762432098389,884736.0,831.659494638443,0.00620077783241868,0.0714111328125,2.483546257019043,-0.023118071258068085,0.042335059493780136,-0.024835459887981415,0.0017173923552036285,0.0,0.037721797823905945,0.284967303276062,0.7502426803162986,0.5859507322311401,0.4920404553413391,0.623672604560852,0.5702115297317505,4.705670595169067,2.770402669906616,,,,,,
8512744000.0,103.42,1.909999966621399,6529777152.0,3646.9433073251366,54.0,0.010777905583381653,901120.0,836.1520240306854,0.007448836229741573,0.08526611328125,2.4755406379699707,-0.021142398938536644,0.05334552749991417,-0.024755403399467468,0.003613005857914686,0.0,0.021212246268987656,0.3084757924079895,0.7877306492155349,0.6222609281539917,0.5560935139656067,0.6434731483459473,0.6695414185523987,4.492529392242432,2.7756426334381104,,,,,,
8512744000.0,101.9,2.190000057220459,6529777152.0,3481.516423515107,55.0,0.01243055984377861,917504.0,840.8580193519592,0.008209733292460442,0.09686279296875,2.458853006362915,-0.020280318334698677,0.04823089763522148,-0.024588530883193016,0.0043082088232040405,0.0,0.06415052711963654,0.2951045334339142,0.7464222608541273,0.5467911958694458,0.4780128598213196,0.6109417676925659,0.5860307812690735,4.705995321273804,2.7696280479431152,,,,,,
8512744000.0,105.98,1.8700000047683716,6529777152.0,3432.423852430624,56.0,0.010639365762472153,933888.0,845.6313226222992,0.0072471871972084045,0.0870361328125,2.4403598308563232,-0.02127223089337349,0.04275331646203995,-0.02440359629690647,0.003131363308057189,0.0,0.015104362741112709,0.28662464022636414,0.7990678623054741,0.6575144529342651,0.5548797845840454,0.6726187467575073,0.6394238471984863,4.773303270339966,2.7973084449768066,,,,,,
8512744000.0,103.3,2.3299999237060547,6529777152.0,3483.6118809102595,57.0,0.01159587875008583,950272.0,850.3344871997833,0.006267201621085405,0.07147216796875,2.435176134109497,-0.02401602268218994,0.04052931070327759,-0.024351760745048523,0.00033574178814888,0.0,0.010005448944866657,0.2868326008319855,0.8165455938932547,0.749416172504425,0.6005611419677734,0.7594215869903564,0.6696755290031433,4.703164577484131,2.7717742919921875,,,,,,
8512744000.0,111.98,2.2699999809265137,6529777152.0,3573.8393351443283,58.0,0.011177374050021172,966656.0,854.9189126491547,0.00391270499676466,0.0443115234375,2.4277021884918213,-0.0233317818492651,0.04568421468138695,-0.02427702397108078,0.0009452416561543941,0.0,0.020129216834902763,0.3069080412387848,0.8245992397006978,0.7201189398765564,0.6362500190734863,0.7402481436729431,0.7328119277954102,4.584425449371338,2.796060562133789,,,,,,
8512744000.0,122.16,2.5399999618530273,6529777152.0,3497.754499639406,59.0,0.011602865532040596,983040.0,859.6030607223511,0.00666730897501111,0.08074951171875,2.4121103286743164,-0.02338307537138462,0.04594497010111809,-0.024121100082993507,0.0007380256429314613,0.0,0.037333786487579346,0.29256200790405273,0.7998439155583532,0.684028685092926,0.5819559693336487,0.7213624715805054,0.6539334058761597,4.684148073196411,2.7928123474121094,,,,,,
8512744000.0,105.62,2.490000009536743,6529777152.0,3602.389082371413,60.0,0.012785110622644424,999424.0,864.1511535644531,0.013167474418878555,0.15283203125,2.4265897274017334,-0.01806442067027092,0.04787830263376236,-0.024265892803668976,0.006201473996043205,0.0,0.04635040462017059,0.29862192273139954,0.8208914244026723,0.7051846981048584,0.6308197379112244,0.7515351176261902,0.7056080102920532,4.548092842102051,2.774595260620117,,,,,,
8512744000.0,113.19,2.740000009536743,6529777152.0,3469.4428581641378,61.0,0.013533416204154491,1015808.0,868.8735256195068,0.008356829173862934,0.1129150390625,2.4453320503234863,-0.02184975892305374,0.07822160422801971,-0.02445332147181034,0.0026035625487565994,0.0,0.0074906861409544945,0.33832597732543945,0.7797894589165205,1.0289782285690308,0.6569310426712036,1.0364689826965332,0.7209686040878296,4.722372055053711,2.8065977096557617,,,,,,
8512744000.0,106.68,2.630000114440918,6529777152.0,3487.1788739492968,62.0,0.01196473091840744,1032192.0,873.5718793869019,0.005503224208950996,0.06695556640625,2.433506488800049,-0.023035479709506035,0.1000056117773056,-0.024335063993930817,0.001299581490457058,0.0,-0.06738989055156708,0.4052351117134094,0.757400452880184,1.2025561332702637,0.6930803656578064,1.1351661682128906,0.8227388262748718,4.6983537673950195,2.8724889755249023,,,,,,
8512944000.0,123.01,2.7300000190734863,6529777152.0,3506.700836644364,63.0,0.011231204494833946,1048576.0,878.244077205658,0.005474023520946503,0.06304931640625,2.4316484928131104,-0.02290937304496765,0.06486811488866806,-0.02431648224592209,0.0014071054756641388,0.0,-0.0012767970329150558,0.344603568315506,0.7668661135914716,0.8682675957679749,0.5835785269737244,0.8669908046722412,0.7137022614479065,4.6721978187561035,2.788808584213257,,,,,,
,,,,,,,,,,,,,,,,,,,,,,,,,,0.014791804365813732,0.13155928254127502,0.12383051961660385,0.014791804365813732,0.13155928254127502,0.12383051961660385
,,,,,,,,,,,,,,,,,,,,,,,,,,0.007390698883682489,0.10524403303861618,0.10201720148324966,0.007390698883682489,0.10524403303861618,0.10201720148324966
,,,,,,,,,,,,,,,,,,,,,,,,,,0.00638936972245574,0.09821717441082001,0.09684579819440842,0.00638936972245574,0.09821717441082001,0.09684579819440842
,,,,,,,,,,,,,,,,,,,,,,,,,,0.00592035660520196,0.09303316473960876,0.09255345165729523,0.00592035660520196,0.09303316473960876,0.09255345165729523
,,,,,,,,,,,,,,,,,,,,,,,,,,0.005406779702752829,0.09062144160270691,0.08988552540540695,0.005406779702752829,0.09062144160270691,0.08988552540540695
,,,,,,,,,,,,,,,,,,,,,,,,,,0.00541227962821722,0.08872824907302856,0.08863751590251923,0.00541227962821722,0.08872824907302856,0.08863751590251923
8513736000.0,124.78,2.4600000381469727,6327188480.0,28.18633832043951,64.0,0.010172996670007706,1064960.0,1459.5185873508453,0.003467361908406019,0.03533935546875,2.4203033447265625,-0.023318080231547356,0.07357670366764069,-0.02420303225517273,0.0008849529549479485,0.0,0.047579988837242126,0.38493725657463074,0.6771026689621713,0.8099325895309448,0.5697335004806519,0.8575125932693481,0.6774195432662964,581.2745101451874,2.8538362979888916,,,,,,
8513736000.0,131.75,3.0299999713897705,6529777152.0,3551.9031609025933,65.0,0.012706881389021873,1081344.0,1464.1313257217407,0.004316986072808504,0.0498046875,2.3848013877868652,-0.02398824878036976,0.07369112968444824,-0.02384801022708416,-0.00014024041593074799,0.0,0.06761399656534195,0.388572633266449,0.7509671778708298,0.9094977378845215,0.6813129782676697,0.9771116971969604,0.7786528468132019,4.612738370895386,2.7970170974731445,,,,,,
8513736000.0,123.72,2.8499999046325684,6529777152.0,3528.387781806576,66.0,0.012745747342705727,1097728.0,1468.7748062610626,0.002959941979497671,0.03167724609375,2.385432720184326,-0.02337360754609108,0.08445088565349579,-0.023854326456785202,0.00048071774654090405,0.0,0.04925009608268738,0.41477563977241516,0.7424158117315091,0.9088984727859497,0.6844921708106995,0.9581485986709595,0.8172476291656494,4.643480539321899,2.785106897354126,,,,,,
8513736000.0,145.5,3.940000057220459,6529777152.0,3413.274706681889,67.0,0.013335668481886387,1114112.0,1473.5748887062073,0.004642426501959562,0.047119140625,2.375828504562378,-0.02250715345144272,0.08025696873664856,-0.023758286610245705,0.0012511294335126877,0.0,0.07187438011169434,0.41269052028656006,0.8018937841673122,1.0220696926116943,0.7682318687438965,1.0939440727233887,0.9272042512893677,4.800082445144653,2.769193410873413,,,,,,
8513736000.0,144.66,3.4700000286102295,6529777152.0,3550.170392738007,68.0,0.012517980299890041,1130496.0,1478.1898784637451,0.005853868555277586,0.061279296875,2.371171474456787,-0.021992698311805725,0.11039747297763824,-0.023711714893579483,0.001719016581773758,0.0,0.05507691577076912,0.48148301243782043,0.7655401914156247,1.1037659645080566,0.896731436252594,1.1588428020477295,0.9943671822547913,4.614989757537842,2.764991044998169,,,,,,
8513736000.0,142.33,3.4700000286102295,6529777152.0,3506.461067831659,69.0,0.013947308994829655,1146880.0,1482.8623957633972,0.00422627292573452,0.0496826171875,2.3324525356292725,-0.02306782267987728,0.09912428259849548,-0.023324523121118546,0.0002567037008702755,0.0,0.060596346855163574,0.4488691985607147,0.7745022751184539,1.2592395544052124,0.8062195777893066,1.319835901260376,0.9452545046806335,4.6725172996521,2.7619540691375732,,,,,,
8513736000.0,147.0,4.179999828338623,6529777152.0,3656.234351934709,70.0,0.014838937669992447,1163264.0,1487.3435089588165,0.0034994136076420546,0.0360107421875,2.342667818069458,-0.022209055721759796,0.09435196965932846,-0.023426679894328117,0.0012176260352134705,0.0,0.09357540309429169,0.4430249333381653,0.8250093059988044,1.1552395820617676,0.9003012776374817,1.2488150596618652,1.0590603351593018,4.4811131954193115,2.7594847679138184,,,,,,
8513736000.0,150.46,4.369999885559082,6529777152.0,3508.839628621831,71.0,0.014443667605519295,1179648.0,1492.0128588676453,0.0055005913600325584,0.05755615234375,2.31927227973938,-0.019763534888625145,0.15121187269687653,-0.023192720487713814,0.003429185599088669,0.0,0.0534333661198616,0.5077285766601562,0.8318699553804343,1.393601417541504,1.0868096351623535,1.4470345973968506,1.2382514476776123,4.669349908828735,2.764096975326538,,,,,,
8513736000.0,161.59,4.429999828338623,6529777152.0,3597.5197412781467,72.0,0.014962409622967243,1196032.0,1496.5671076774597,0.004565226845443249,0.0458984375,2.3206818103790283,-0.02289586514234543,0.1204657033085823,-0.023206815123558044,0.00031094904989004135,0.0,0.0683998167514801,0.49875199794769287,0.7902818154630449,1.4359147548675537,0.8934440612792969,1.5043145418167114,1.0890971422195435,4.554248809814453,2.762892484664917,,,,,,
8513736000.0,164.65,4.150000095367432,6529777152.0,3544.2486847833547,73.0,0.01327160932123661,1212416.0,1501.1898081302643,0.009462399408221245,0.1087646484375,2.31280779838562,-0.020557446405291557,0.14888927340507507,-0.023128077387809753,0.002570629119873047,0.0,0.040380287915468216,0.520031750202179,0.8123844358088452,1.4123893976211548,1.0775083303451538,1.4527697563171387,1.2005919218063354,4.622700452804565,2.760136127471924,,,,,,
8513736000.0,182.84,5.570000171661377,6529777152.0,3495.072187166406,74.0,0.017305368557572365,1228800.0,1505.8775510787964,0.007393226493149996,0.0753173828125,2.3143465518951416,-0.019160864874720573,0.18987435102462769,-0.0231434665620327,0.003982596565037966,0.0,0.1246534138917923,0.5964912176132202,0.7938191148981705,1.4832537174224854,1.1496117115020752,1.6079071760177612,1.3136507272720337,4.6877429485321045,2.75386381149292,,,,,,
8513736000.0,162.61,4.849999904632568,6529777152.0,3507.3646662677806,75.0,0.014775094576179981,1245184.0,1510.5488646030426,0.0035949922166764736,0.0384521484375,2.307621717453003,-0.021983325481414795,0.17313995957374573,-0.023076215758919716,0.0010928921401500702,0.0,0.09391859173774719,0.5630844235420227,0.7879608443766641,1.5566068887710571,1.0460039377212524,1.650525450706482,1.2228280305862427,4.671313524246216,2.7607264518737793,,,,,,
8513736000.0,178.06,6.340000152587891,6529777152.0,3436.3169530477617,76.0,0.018016617745161057,1261568.0,1515.3167600631714,0.005402016919106245,0.06005859375,2.3064382076263428,-0.018773380666971207,0.23028352856636047,-0.023064380511641502,0.004290999844670296,0.0,0.1162608191370964,0.6796446442604065,0.8274744132316417,1.6945457458496094,1.4577295780181885,1.8108065128326416,1.6362706422805786,4.767895460128784,2.7550435066223145,,,,,,
8513736000.0,177.44,5.909999847412109,6529777152.0,3439.6518565301876,77.0,0.018679901957511902,1277952.0,1520.08003282547,0.00563636003062129,0.06134033203125,2.2992091178894043,-0.019482828676700592,0.1799584925174713,-0.0229920893907547,0.0035092588514089584,0.0,0.0936344787478447,0.6132639050483704,0.8589274738231458,1.8522567749023438,1.3701202869415283,1.9458911418914795,1.6327743530273438,4.763272762298584,2.758303165435791,,,,,,
8513736000.0,177.58,5.880000114440918,6529777152.0,3587.0065406994195,78.0,0.01659482717514038,1294336.0,1524.647629737854,0.00789642333984375,0.09893798828125,2.285102605819702,-0.020417509600520134,0.199618399143219,-0.02285102754831314,0.0024335188791155815,0.0,0.07878904044628143,0.6100395321846008,0.8442532441447993,1.7509939670562744,1.4367632865905762,1.8297829627990723,1.5457828044891357,4.567596912384033,2.767657518386841,,,,,,
8513736000.0,206.37,6.110000133514404,6529777152.0,3563.0564815638163,79.0,0.015080377459526062,1310720.0,1529.2459290027618,0.005704598501324654,0.07183837890625,2.268918752670288,-0.02196733094751835,0.30040526390075684,-0.02268918603658676,0.000721856951713562,0.0,0.088905468583107,0.7675946950912476,0.7457527485470807,1.9052000045776367,1.398043155670166,1.9941054582595825,1.5223125219345093,4.598299264907837,2.753551959991455,,,,,,
8513736000.0,199.34,6.389999866485596,6529777152.0,3557.8051827965764,80.0,0.017998874187469482,1327104.0,1533.851015329361,0.005892123095691204,0.064453125,2.2709646224975586,-0.020166967064142227,0.2241601049900055,-0.022709645330905914,0.0025426791980862617,0.0,0.08128435909748077,0.5862453579902649,0.8627869182770338,2.016242504119873,1.4103862047195435,2.097526788711548,1.5826382637023926,4.605086326599121,2.7731714248657227,,,,,,
8513736000.0,194.19,7.0,6529777152.0,3429.4019024642125,81.0,0.017799220979213715,1343488.0,1538.6285247802734,0.005353895947337151,0.0657958984375,2.267233371734619,-0.019674301147460938,0.1970832645893097,-0.02267233282327652,0.002998029813170433,0.0,0.07691626250743866,0.622387170791626,0.8533253339084663,2.1241798400878906,1.401322603225708,2.2010960578918457,1.6251112222671509,4.777509450912476,2.7518632411956787,,,,,,
8513736000.0,218.56,7.579999923706055,6529777152.0,3502.486225343586,82.0,0.01757170632481575,1359872.0,1543.3063447475433,0.005437588319182396,0.063720703125,2.248366355895996,-0.01985779032111168,0.21100012958049774,-0.022483661770820618,0.0026258761063218117,0.0,0.08496342599391937,0.6496729254722595,0.8450275141161807,2.209207057952881,1.4350324869155884,2.294170379638672,1.6503170728683472,4.6778199672698975,2.764849901199341,,,,,,
8513736000.0,212.3,7.099999904632568,6529777152.0,3543.447484878228,83.0,0.015406200662255287,1376256.0,1547.9300904273987,0.01002542395144701,0.10223388671875,2.2316157817840576,-0.019444851204752922,0.2979064881801605,-0.022316157817840576,0.002871304750442505,0.0,0.07746408879756927,0.7337470650672913,0.8258023965274423,2.1651954650878906,1.5830652713775635,2.242659568786621,1.7580264806747437,4.623745679855347,2.771629810333252,,,,,,
8513736000.0,236.85,8.789999961853027,6529777152.0,3565.130493018449,84.0,0.01882229931652546,1392640.0,1552.525714635849,0.005619967356324196,0.0584716796875,2.2069578170776367,-0.01898479461669922,0.27788159251213074,-0.022069578990340233,0.003084784373641014,0.0,0.1570775806903839,0.7530330419540405,0.8489500578120138,2.051496982574463,1.7381236553192139,2.2085742950439453,1.9375531673431396,4.595624208450317,2.7615883350372314,,,,,,
8513736000.0,237.95,7.130000114440918,6529777152.0,3551.069320067363,85.0,0.015230968594551086,1409024.0,1557.1395361423492,0.008119973354041576,0.09124755859375,2.224377155303955,-0.01822935976088047,0.22248443961143494,-0.022243771702051163,0.004014410078525543,0.0,0.11389216780662537,0.6709453463554382,0.8604930247047894,2.045431137084961,1.6398588418960571,2.1593234539031982,1.7963428497314453,4.613821506500244,2.7612717151641846,,,,,,
8513736000.0,219.67,7.699999809265137,6529777152.0,3519.4326057837748,86.0,0.018339108675718307,1425408.0,1561.7948319911957,0.006271685473620892,0.0712890625,2.2173547744750977,-0.019394807517528534,0.22741086781024933,-0.022173546254634857,0.0027787405997514725,0.0,0.10939930379390717,0.6786112785339355,0.8746976741865,2.133613109588623,1.6851568222045898,2.2430124282836914,1.9170856475830078,4.6552958488464355,2.7575197219848633,,,,,,
8513736000.0,210.63,7.179999828338623,6529777152.0,3507.217703622536,87.0,0.01639159582555294,1441792.0,1566.4663412570953,0.0055633289739489555,0.0609130859375,2.228254795074463,-0.021197158843278885,0.2700180411338806,-0.022282548248767853,0.0010853856801986694,0.0,0.1311112493276596,0.6904378533363342,0.8557017312376411,2.043886661529541,1.6282763481140137,2.1749980449676514,1.8175820112228394,4.671509265899658,2.7727372646331787,,,,,,
8513736000.0,198.64,6.260000228881836,6529777152.0,3378.8225734404136,88.0,0.017785770818591118,1458176.0,1571.3153676986694,0.005751708522439003,0.05999755859375,2.2002100944519043,-0.02006465196609497,0.28372758626937866,-0.022002100944519043,0.0019374480471014977,0.0,0.08687182515859604,0.6983007192611694,0.8662931462032636,2.0708587169647217,1.7312999963760376,2.1577305793762207,1.9097026586532593,4.849026441574097,2.9023709297180176,,,,,,
8513736000.0,223.4,7.559999942779541,6529777152.0,3499.2420577879375,89.0,0.018363405019044876,1474560.0,1575.9975244998932,0.004309924319386482,0.0482177734375,2.2171390056610107,-0.020792461931705475,0.27147024869918823,-0.022171389311552048,0.0013789236545562744,0.0,0.12376190721988678,0.7167679071426392,0.8808759934791597,2.5323615074157715,1.9450080394744873,2.656123638153076,2.0767247676849365,4.682156801223755,2.766663074493408,,,,,,
8513736000.0,239.7,9.039999961853027,6529777152.0,3502.294868461885,90.0,0.01841343194246292,1490944.0,1580.6756000518799,0.00815921276807785,0.097900390625,2.216508388519287,-0.018719999119639397,0.23036107420921326,-0.02216508239507675,0.0034450790844857693,0.0,0.12647899985313416,0.6688140630722046,0.893279917156826,2.7437691688537598,1.9198296070098877,2.870248317718506,2.047304153442383,4.678075551986694,2.7710320949554443,,,,,,
8513736000.0,258.91,10.039999961853027,6529777152.0,3470.145049127771,91.0,0.021566392853856087,1507328.0,1585.3970165252686,0.00865395087748766,0.09881591796875,2.237119197845459,-0.018892724066972733,0.3323603868484497,-0.022371193394064903,0.0034784702584147453,0.0,0.0856485366821289,0.8230071067810059,0.870171024682903,2.973423957824707,2.155769109725952,3.059072494506836,2.284114122390747,4.721416473388672,2.777066469192505,,,,,,
8513736000.0,259.86,9.25,6529777152.0,3510.185476098581,92.0,0.01847427524626255,1523712.0,1590.0645761489868,0.006700674071907997,0.0806884765625,2.228034734725952,-0.019217848777770996,0.2716663181781769,-0.022280346602201462,0.0030624978244304657,0.0,0.13886409997940063,0.7259591817855835,0.87475239758225,3.049975872039795,1.913792610168457,3.188839912414551,2.0512917041778564,4.667559623718262,2.763876438140869,,,,,,
8513736000.0,268.39,10.25,6529777152.0,3483.7762990992755,93.0,0.019629158079624176,1540096.0,1594.7675187587738,0.005587910767644644,0.0572509765625,2.240257740020752,-0.019976921379566193,0.3758472204208374,-0.022402577102184296,0.0024256575852632523,0.0,0.0462624691426754,0.8604189157485962,0.8262459853935373,3.4545998573303223,1.9864429235458374,3.5008623600006104,2.0641562938690186,4.702942609786987,2.770434617996216,,,,,,
8513736000.0,278.41,12.520000457763672,6529777152.0,3505.4425948797702,94.0,0.02416546456515789,1556480.0,1599.4413936138153,0.008727606385946274,0.099609375,2.2120602130889893,-0.019720563665032387,0.3245570957660675,-0.022120600566267967,0.002400040626525879,0.0,0.12362091988325119,0.8122509121894836,0.8600895220115454,3.814671516418457,1.979474425315857,3.9382925033569336,2.1715264320373535,4.673874855041504,2.79034423828125,,,,,,
8513896000.0,261.57,11.539999961853027,6529777152.0,3474.382615456479,95.0,0.02137961983680725,1572864.0,1604.157051563263,0.008485924452543259,0.1053466796875,2.200568675994873,-0.015773041173815727,0.3226865530014038,-0.022005688399076462,0.0062326472252607346,0.0,0.06684480607509613,0.7990018725395203,0.8863513432021521,4.3398542404174805,2.248278856277466,4.406699180603027,2.3700952529907227,4.715657949447632,2.788956880569458,,,,,,
,,,,,,,,,,,,,,,,,,,,,,,,,,0.05250664800405502,0.7467238903045654,0.6916964650154114,0.05250664800405502,0.7467238903045654,0.6916964650154114
,,,,,,,,,,,,,,,,,,,,,,,,,,0.026905398815870285,0.5632660388946533,0.5323550701141357,0.026905398815870285,0.5632660388946533,0.5323550701141357
,,,,,,,,,,,,,,,,,,,,,,,,,,0.02364879846572876,0.5130573511123657,0.49963730573654175,0.02364879846572876,0.5130573511123657,0.49963730573654175
,,,,,,,,,,,,,,,,,,,,,,,,,,0.02096724323928356,0.49132126569747925,0.4804687201976776,0.02096724323928356,0.49132126569747925,0.4804687201976776
,,,,,,,,,,,,,,,,,,,,,,,,,,0.020493296906352043,0.46875596046447754,0.4651282727718353,0.020493296906352043,0.46875596046447754,0.4651282727718353
,,,,,,,,,,,,,,,,,,,,,,,,,,0.018661940470337868,0.4557885229587555,0.4588547945022583,0.018661940470337868,0.4557885229587555,0.4588547945022583
8514160000.0,281.32,11.670000076293945,6327188480.0,28.20459393258648,96.0,0.021645694971084595,1589248.0,2185.0553278923035,0.0044385711662471294,0.05169677734375,2.2190122604370117,-0.019472476094961166,0.199518084526062,-0.022190123796463013,0.0027176467701792717,0.0,0.18804825842380524,0.6129414439201355,0.8794358535636728,2.4274792671203613,1.5916777849197388,2.615527629852295,1.7652649879455566,580.8982763290405,2.8043196201324463,,,,,,
8514160000.0,278.6,11.289999961853027,6529777152.0,3378.442009968053,97.0,0.021244604140520096,1605632.0,2189.9049005508423,0.004993723705410957,0.053955078125,2.214026689529419,-0.020946914330124855,0.2794898748397827,-0.022140266373753548,0.0011933536734431982,0.0,0.18648508191108704,0.7485032081604004,0.8731360387694079,2.647526264190674,1.9322744607925415,2.8340110778808594,2.1014764308929443,4.849572658538818,2.7599849700927734,,,,,,
8514160000.0,284.95,11.520000457763672,6529777152.0,3404.4189583587645,98.0,0.019754700362682343,1622016.0,2194.717469215393,0.005721710622310638,0.07012939453125,2.231887102127075,-0.020097512751817703,0.23726290464401245,-0.022318869829177856,0.0022213547490537167,0.0,0.1812169849872589,0.6716158390045166,0.8899211556506362,2.7135109901428223,1.8187885284423828,2.8947277069091797,2.0242724418640137,4.812568664550781,2.950083017349243,,,,,,
8514160000.0,282.63,12.119999885559082,6529777152.0,3621.5135742181683,99.0,0.022489186376333237,1638400.0,2199.241544485092,0.009020363911986351,0.11004638671875,2.2372708320617676,-0.01654975861310959,0.29170769453048706,-0.02237270399928093,0.005822948180139065,0.0,0.18244487047195435,0.7557632327079773,0.8857496986598827,3.3459060192108154,2.045304775238037,3.528350830078125,2.235924005508423,4.524075269699097,2.747868299484253,,,,,,
8514160000.0,279.25,12.699999809265137,6529777152.0,3554.633915231474,100.0,0.02202453464269638,1654784.0,2203.8507392406464,0.006234223488718271,0.0726318359375,2.2557735443115234,-0.01915104128420353,0.33262214064598083,-0.022557733580470085,0.0034066911321133375,0.0,0.16673246026039124,0.7719857692718506,0.8866658826736894,3.4750688076019287,2.133117914199829,3.641801357269287,2.2931315898895264,4.609194755554199,2.752406358718872,,,,,,
8514160000.0,289.4,12.1899995803833,6529777152.0,3570.917747191025,101.0,0.021521328017115593,1671168.0,2208.438915491104,0.002677878364920616,0.0252685546875,2.215019464492798,-0.02142167277634144,0.315378338098526,-0.0221501924097538,0.0007285261526703835,0.0,0.11245234310626984,0.7895512580871582,0.8817164970464914,3.77079176902771,2.1962180137634277,3.883244037628174,2.2957165241241455,4.588176250457764,2.7483651638031006,,,,,,
8514160000.0,285.28,12.460000038146973,6529777152.0,3498.0416893185934,102.0,0.024427207186818123,1687552.0,2213.1226789951324,0.0027279313653707504,0.02813720703125,2.203670024871826,-0.02217162400484085,0.305819571018219,-0.02203669771552086,-0.00013492070138454437,0.0,0.187945157289505,0.7664949893951416,0.8910658841645818,3.9099152088165283,2.20196795463562,4.097860336303711,2.3223483562469482,4.68376350402832,2.74865460395813,,,,,,
8514160000.0,307.16,14.109999656677246,6529777152.0,3498.376120855765,103.0,0.022414281964302063,1703936.0,2217.805994749069,0.0037806846667081118,0.03814697265625,2.1575307846069336,-0.019831206649541855,0.3282422721385956,-0.021575309336185455,0.0017441017553210258,0.0,0.1068781316280365,0.8101524114608765,0.8682453090385913,4.150247097015381,2.11660099029541,4.257125377655029,2.2319462299346924,4.683315753936768,2.750572919845581,,,,,,
8514160000.0,323.8,14.720000267028809,6529777152.0,3494.0279852824647,104.0,0.0230967216193676,1720320.0,2222.495138645172,0.003733213758096099,0.0380859375,2.1683616638183594,-0.0218887347728014,0.2917766869068146,-0.02168361470103264,-0.0002051175106316805,0.0,0.15822844207286835,0.7372919321060181,0.87692931186268,4.341256141662598,2.0037736892700195,4.499484062194824,2.1016581058502197,4.689143896102905,2.757099151611328,,,,,,
8514160000.0,328.89,14.949999809265137,6529777152.0,3620.449114864048,105.0,0.024587024003267288,1736704.0,2227.020544052124,0.003195676952600479,0.033935546875,2.171379804611206,-0.02005530707538128,0.3551849126815796,-0.021713798865675926,0.001658489927649498,0.0,0.1318216323852539,0.8295210003852844,0.8647535920852933,4.399820804595947,2.12815260887146,4.531641960144043,2.2556116580963135,4.525405406951904,2.7604448795318604,,,,,,
8514160000.0,343.48,15.949999809265137,6529777152.0,3612.534852053428,106.0,0.022683583199977875,1753088.0,2231.5558636188507,0.0032425320241600275,0.03338623046875,2.1788246631622314,-0.019311830401420593,0.31401827931404114,-0.02178824692964554,0.0024764148984104395,0.0,0.13944341242313385,0.7688434720039368,0.8677691425079688,4.423612594604492,1.9869999885559082,4.563055515289307,2.114323139190674,4.535319566726685,2.7534568309783936,,,,,,
8514160000.0,335.39,16.149999618530273,6529777152.0,3476.9729105723045,107.0,0.024500466883182526,1769472.0,2236.2680084705353,0.004375677555799484,0.0487060546875,2.164673089981079,-0.01956414245069027,0.34361571073532104,-0.021646730601787567,0.0020825890824198723,0.0,0.15114080905914307,0.7987903356552124,0.8704243120558735,4.813838005065918,2.1315126419067383,4.9649786949157715,2.2190701961517334,4.71214485168457,2.7465121746063232,,,,,,
8514160000.0,328.36,15.699999809265137,6529777152.0,3604.9489703836916,108.0,0.022573187947273254,1785856.0,2240.812871694565,0.0036669974215328693,0.041015625,2.173712730407715,-0.021176885813474655,0.319641649723053,-0.021737126633524895,0.0005602417513728142,0.0,0.10577123612165451,0.7808288335800171,0.887233256391897,4.638209342956543,2.188128709793091,4.743980407714844,2.3252265453338623,4.544863224029541,2.747802972793579,,,,,,
8514160000.0,324.1,15.640000343322754,6529777152.0,3637.7139978045448,109.0,0.028398197144269943,1802240.0,2245.3167991638184,0.0032129469327628613,0.03399658203125,2.178361415863037,-0.019643843173980713,0.31377339363098145,-0.021783610805869102,0.0021397676318883896,0.0,0.1698465645313263,0.7847402691841125,0.8813480224688754,4.880364418029785,2.170165777206421,5.050210952758789,2.278182029724121,4.50392746925354,2.7544288635253906,,,,,,
8514160000.0,330.93,16.600000381469727,6529777152.0,3566.6176133292033,110.0,0.025501269847154617,1818624.0,2249.9105072021484,0.004599071107804775,0.0506591796875,2.1848807334899902,-0.01971094310283661,0.280876487493515,-0.021848807111382484,0.0021378658711910248,0.0,0.13711076974868774,0.7415831089019775,0.8854964876221254,4.966463088989258,2.104832172393799,5.103573799133301,2.191545248031616,4.593708038330078,2.749868392944336,,,,,,
8514160000.0,340.2,17.729999542236328,6529777152.0,3502.883643279558,111.0,0.028788890689611435,1835008.0,2254.5877964496613,0.0028343554586172104,0.027099609375,2.155198812484741,-0.019410397857427597,0.314090371131897,-0.021551987156271935,0.0021415892988443375,0.0,0.20160216093063354,0.7917340993881226,0.8841572861585156,5.061729907989502,2.2664711475372314,5.263331890106201,2.3261890411376953,4.677289247512817,2.753804922103882,,,,,,
8514160000.0,357.65,18.969999313354492,6529777152.0,3502.754195818703,112.0,0.024924905970692635,1851392.0,2259.265258550644,0.0035912131424993277,0.04278564453125,2.166755437850952,-0.01934235729277134,0.3009229302406311,-0.02166755497455597,0.00232519768178463,0.0,0.16844625771045685,0.7733772993087769,0.8570804973232539,5.1547017097473145,1.9389277696609497,5.323147773742676,2.0457167625427246,4.677462100982666,2.7627453804016113,,,,,,
8514160000.0,354.72,19.299999237060547,6529777152.0,3490.475872308156,113.0,0.028405489400029182,1867776.0,2263.9591743946075,0.00525332847610116,0.06182861328125,2.155809164047241,-0.018034491688013077,0.2823239266872406,-0.021558091044425964,0.003523595631122589,0.0,0.13161225616931915,0.7399598956108093,0.8861197364393526,5.475231647491455,2.107079267501831,5.6068434715271,2.192723274230957,4.693915843963623,2.7580676078796387,,,,,,
8514160000.0,364.85,19.290000915527344,6529777152.0,3576.8399895837797,114.0,0.02697594091296196,1884160.0,2268.5397539138794,0.0043343971483409405,0.04852294921875,2.161094903945923,-0.020016750320792198,0.29033899307250977,-0.02161094918847084,0.0015942035242915154,0.0,0.1546640545129776,0.7435194253921509,0.8660759850262763,5.445902347564697,1.9279576539993286,5.600566864013672,2.0317182540893555,4.580579519271851,2.750264883041382,,,,,,
8514160000.0,356.25,17.790000915527344,6529777152.0,3470.2496662661947,115.0,0.023432807996869087,1900544.0,2273.2610280513763,0.003510718699544668,0.034423828125,2.153846025466919,-0.020084399729967117,0.27109232544898987,-0.02153846062719822,0.0014540590345859528,0.0,0.1371525079011917,0.7209267020225525,0.863168977658676,5.348808288574219,1.8424186706542969,5.485960960388184,1.9489409923553467,4.721274137496948,2.762303590774536,,,,,,
8514160000.0,359.14,19.6200008392334,6529777152.0,3502.034463909966,116.0,0.03196534141898155,1916928.0,2277.93945145607,0.0027065551839768887,0.02276611328125,2.145559310913086,-0.019865188747644424,0.3196786642074585,-0.021455593407154083,0.001590401167050004,0.0,0.17956092953681946,0.7704277634620667,0.8734731843357133,5.688479423522949,2.0397119522094727,5.868040084838867,2.1659109592437744,4.6784234046936035,2.7560513019561768,,,,,,
8514160000.0,366.07,20.229999542236328,6529777152.0,3596.065268453654,117.0,0.022383689880371094,1933312.0,2282.4955422878265,0.0028942206408828497,0.02679443359375,2.1752500534057617,-0.02000926062464714,0.24712708592414856,-0.021752499043941498,0.0017432402819395065,0.0,0.17976045608520508,0.6757841110229492,0.8677000658439838,5.428757667541504,1.7913241386413574,5.608518123626709,1.857925534248352,4.556090831756592,2.7605528831481934,,,,,,
8514160000.0,384.71,21.31999969482422,6529777152.0,3400.115033615232,118.0,0.033784717321395874,1949696.0,2287.314202785492,0.005025038029998541,0.05615234375,2.1490931510925293,-0.01955161616206169,0.282925009727478,-0.021490931510925293,0.0019393162801861763,0.0,0.15612170100212097,0.7138735055923462,0.8853375771655806,5.745421409606934,1.999145746231079,5.901543617248535,2.1081955432891846,4.818660497665405,2.83232045173645,,,,,,
8514160000.0,359.07,18.780000686645508,6529777152.0,3425.089757822081,119.0,0.023950625211000443,1966080.0,2292.097727060318,0.005174562335014343,0.05194091796875,2.1525392532348633,-0.01905892603099346,0.2885708212852478,-0.021525394171476364,0.0024664681404829025,0.0,0.14604079723358154,0.7412267923355103,0.8749985119455475,5.629059314727783,1.9364874362945557,5.775100231170654,2.096493721008301,4.78352427482605,2.7661421298980713,,,,,,
8514160000.0,328.31,16.520000457763672,6529777152.0,3466.7789411149593,120.0,0.023119602352380753,1982464.0,2296.8237278461456,0.003335751825943589,0.0350341796875,2.1496694087982178,-0.01974937692284584,0.2604316473007202,-0.021496692672371864,0.0017473124898970127,0.0,0.0384068638086319,0.7295088171958923,0.8757147794896674,5.68331241607666,1.9284605979919434,5.721719264984131,2.0692873001098633,4.726000785827637,2.7600650787353516,,,,,,
8514160000.0,346.0,17.860000610351562,6529777152.0,3469.857515921602,121.0,0.0287620909512043,1998848.0,2301.5455355644226,0.0025686370208859444,0.02471923828125,2.162275791168213,-0.02097873017191887,0.2845035791397095,-0.021622758358716965,0.0006440244615077972,0.0,0.1299954354763031,0.742819607257843,0.8773545054697977,5.562975883483887,1.989591121673584,5.692971229553223,2.1210827827453613,4.7218077182769775,2.7589051723480225,,,,,,
8514160000.0,337.99,17.780000686645508,6529777152.0,3567.6462039244097,122.0,0.02626500092446804,2015232.0,2306.137919187546,0.004118836484849453,0.0452880859375,2.152430772781372,-0.020518818870186806,0.28614142537117004,-0.021524306386709213,0.0010054882150143385,0.0,0.12461243569850922,0.7281962633132935,0.8810144491933778,5.876102924346924,1.9751421213150024,6.000715255737305,2.111063241958618,4.592383623123169,2.7695350646972656,,,,,,
8514160000.0,349.27,18.1299991607666,6529777152.0,3509.1693186578264,123.0,0.02494286745786667,2031616.0,2310.806830406189,0.0060740383341908455,0.07147216796875,2.1812174320220947,-0.018724162131547928,0.25243043899536133,-0.02181217260658741,0.0030880114063620567,0.0,0.12591606378555298,0.662287175655365,0.8846202128931551,6.0835065841674805,1.9188120365142822,6.209423065185547,1.949762225151062,4.6689112186431885,2.7558414936065674,,,,,,
8514160000.0,372.45,20.510000228881836,6529777152.0,3571.9917090904555,124.0,0.03189137950539589,2048000.0,2315.393627166748,0.007095823064446449,0.083251953125,2.1700010299682617,-0.01914227567613125,0.28649085760116577,-0.02170000784099102,0.002557735424488783,0.0,0.12180520594120026,0.7085832953453064,0.88708226539612,6.026139736175537,2.0118095874786377,6.147944927215576,2.108675241470337,4.586796760559082,2.765209197998047,,,,,,
8514160000.0,368.31,20.299999237060547,6529777152.0,3603.0966280064877,125.0,0.026010805740952492,2064384.0,2319.940826892853,0.004287941846996546,0.0447998046875,2.173460006713867,-0.019493475556373596,0.27729108929634094,-0.02173459716141224,0.002241121605038643,0.0,0.17175213992595673,0.6937947273254395,0.8819880576480176,6.166333198547363,1.9649800062179565,6.338085174560547,2.019610643386841,4.547199726104736,2.7806947231292725,,,,,,
8514160000.0,369.32,19.969999313354492,6529777152.0,3500.386371636997,126.0,0.028706781566143036,2080768.0,2324.6214530467987,0.00616120221093297,0.06732177734375,2.1724469661712646,-0.018209833651781082,0.30789971351623535,-0.02172446995973587,0.003514634445309639,0.0,0.07474733889102936,0.7446329593658447,0.8523321607250716,6.153911590576172,1.8485201597213745,6.228658676147461,1.9377562999725342,4.680626153945923,2.758392333984375,,,,,,
8514196000.0,378.28,20.25,6529777152.0,3466.6862502972585,127.0,0.028704119846224785,2097152.0,2329.3475801944733,0.006935072597116232,0.07861328125,2.184326648712158,-0.018798217177391052,0.2696411609649658,-0.021843263879418373,0.0030450429767370224,0.0,0.11625133454799652,0.6788751482963562,0.8781131559375581,6.667509078979492,1.8110041618347168,6.783760070800781,1.9445157051086426,4.7261271476745605,2.7691702842712402,,,,,,
,,,,,,,,,,,,,,,,,,,,,,,,,,0.041740983724594116,1.2135463953018188,1.0193196535110474,0.041740983724594116,1.2135463953018188,1.0193196535110474
,,,,,,,,,,,,,,,,,,,,,,,,,,0.02594968117773533,0.9417957663536072,0.8762722611427307,0.02594968117773533,0.9417957663536072,0.8762722611427307
,,,,,,,,,,,,,,,,,,,,,,,,,,0.02304663509130478,0.8708346486091614,0.8389422297477722,0.02304663509130478,0.8708346486091614,0.8389422297477722
,,,,,,,,,,,,,,,,,,,,,,,,,,0.02178022265434265,0.8469017148017883,0.8227561712265015,0.02178022265434265,0.8469017148017883,0.8227561712265015
,,,,,,,,,,,,,,,,,,,,,,,,,,0.019862323999404907,0.8092540502548218,0.7987285852432251,0.019862323999404907,0.8092540502548218,0.7987285852432251
,,,,,,,,,,,,,,,,,,,,,,,,,,0.02013533189892769,0.8204375505447388,0.8102623224258423,0.02013533189892769,0.8204375505447388,0.8102623224258423
8514196000.0,366.3,20.059999465942383,6327188480.0,28.202441637178897,128.0,0.027099180966615677,2113536.0,2910.2901883125305,0.007456453051418066,0.08282470703125,2.192146062850952,-0.01847812719643116,0.20369519293308258,-0.021921459585428238,0.0034433314576745033,0.0,0.20489825308322906,0.608157753944397,0.9106528787766531,4.767754077911377,1.8993866443634033,4.972652435302734,2.034586191177368,580.9426081180573,2.959498643875122,,,,,,
8514196000.0,349.1,19.15999984741211,6529777152.0,3488.2260680083377,129.0,0.028251275420188904,2129920.0,2914.9871315956116,0.00867180060595274,0.106201171875,2.177091598510742,-0.017747800797224045,0.24833212792873383,-0.021770916879177094,0.004023116547614336,0.0,0.1563599854707718,0.6903063058853149,0.9181274576254844,4.937538146972656,2.2787463665008545,5.093898296356201,2.4125306606292725,4.696943283081055,2.752129316329956,,,,,,
8514196000.0,339.43,18.25,6529777152.0,3600.38411738599,130.0,0.021631237119436264,2146304.0,2919.5377571582794,0.008562404662370682,0.11083984375,2.181633710861206,-0.018986541777849197,0.2105947732925415,-0.02181633748114109,0.0028297938406467438,0.0,0.22776462137699127,0.6360538601875305,0.9188810988014658,5.177036762237549,2.105830192565918,5.404801368713379,2.233226776123047,4.550625562667847,2.7767090797424316,,,,,,
8514196000.0,362.03,19.579999923706055,6529777152.0,3553.289601615911,131.0,0.03152179718017578,2162688.0,2924.148695707321,0.0044508399441838264,0.05010986328125,2.1811633110046387,-0.020266516134142876,0.2502090632915497,-0.021811630576848984,0.0015451116487383842,0.0,0.1384056806564331,0.7009913325309753,0.8966049943632607,5.563838958740234,2.132594585418701,5.702244758605957,2.1800320148468018,4.610938549041748,2.7559781074523926,,,,,,
8514196000.0,382.02,20.579999923706055,6529777152.0,3549.692862242665,132.0,0.02728397212922573,2179072.0,2928.764306306839,0.006344064604490995,0.06463623046875,2.1740939617156982,-0.020135583356022835,0.23859603703022003,-0.02174093946814537,0.0016053561121225357,0.0,0.16488294303417206,0.6953979730606079,0.9018142947860167,5.922482967376709,2.1710755825042725,6.087366104125977,2.219265937805176,4.615610599517822,2.752286434173584,,,,,,
8514196000.0,377.09,20.049999237060547,6529777152.0,3609.8962938028294,133.0,0.025859829038381577,2195456.0,2933.3029408454895,0.004860915709286928,0.055419921875,2.178328275680542,-0.01931358128786087,0.2539372444152832,-0.021783282980322838,0.0024696998298168182,0.0,0.15493065118789673,0.7063195705413818,0.897059656487781,5.902599334716797,2.109909772872925,6.057529926300049,2.2014479637145996,4.538634538650513,2.764803886413574,,,,,,
8514196000.0,377.3,21.079999923706055,6529777152.0,3577.111451971109,134.0,0.028200527653098106,2211840.0,2937.883172750473,0.002684286329895258,0.0235595703125,2.1505026817321777,-0.020392071455717087,0.2583935856819153,-0.021505028009414673,0.0011129602789878845,0.0,0.10620692372322083,0.7201982736587524,0.8943469763764744,6.127808094024658,2.1505305767059326,6.234014987945557,2.215700387954712,4.5802319049835205,2.76123309135437,,,,,,
8514196000.0,381.9,20.780000686645508,6529777152.0,3601.9075965291854,135.0,0.0278179794549942,2228224.0,2942.431873559952,0.005357732996344566,0.050048828125,2.14986252784729,-0.019955363124608994,0.2074911892414093,-0.021498626098036766,0.0015432597137987614,0.0,0.14240512251853943,0.638207197189331,0.8968280143326871,6.251480579376221,1.986865520477295,6.393885612487793,1.986922264099121,4.54870080947876,2.762162685394287,,,,,,
8514196000.0,403.45,22.25,6529777152.0,3622.183021573026,136.0,0.02783290110528469,2244608.0,2946.955112695694,0.0046603381633758545,0.04962158203125,2.150615930557251,-0.020574752241373062,0.2106478214263916,-0.021506160497665405,0.0009314073249697685,0.0,0.18306946754455566,0.6439840197563171,0.9036308649476275,6.524529457092285,2.0251967906951904,6.70759916305542,2.0744645595550537,4.5232391357421875,2.760514497756958,,,,,,
8514196000.0,404.11,22.139999389648438,6529777152.0,3509.940390114049,137.0,0.029345998540520668,2260992.0,2951.62299823761,0.0029380584601312876,0.03045654296875,2.1717090606689453,-0.020509522408246994,0.25824564695358276,-0.021717088297009468,0.001207568682730198,0.0,0.09258177876472473,0.7275111079216003,0.8652410305362187,6.902904510498047,1.9772838354110718,6.995486736297607,1.9818036556243896,4.6678855419158936,2.7524678707122803,,,,,,
8514196000.0,401.32,22.020000457763672,6529777152.0,3541.157182713868,138.0,0.02545240893959999,2277376.0,2956.249734401703,0.005366595461964607,0.06378173828125,2.1638834476470947,-0.020207835361361504,0.24988128244876862,-0.021638832986354828,0.0014309976249933243,0.0,0.11082642525434494,0.7003993988037109,0.8623619491837639,6.828100681304932,1.8676764965057373,6.938926696777344,1.8878880739212036,4.626736164093018,2.7565298080444336,,,,,,
8514196000.0,379.27,20.149999618530273,6529777152.0,3385.3076301533106,139.0,0.029466379433870316,2293760.0,2961.0894718170166,0.006961965002119541,0.0712890625,2.1622791290283203,-0.018148280680179596,0.25470542907714844,-0.02162279188632965,0.003474511206150055,0.0,0.08065754920244217,0.7199844121932983,0.871438327638314,6.658421516418457,1.8600620031356812,6.739078998565674,2.00801682472229,4.839737415313721,2.7569680213928223,,,,,,
8514196000.0,376.14,20.709999084472656,6529777152.0,3436.3846565856948,140.0,0.030126679688692093,2310144.0,2965.857273340225,0.004732109606266022,0.05010986328125,2.13956618309021,-0.02020990289747715,0.22597046196460724,-0.021395660936832428,0.0011857589706778526,0.0,0.13734401762485504,0.6719738245010376,0.8571732807788399,7.303040504455566,1.7704342603683472,7.440384864807129,1.7780652046203613,4.767801523208618,2.7513465881347656,,,,,,
8514196000.0,371.43,21.18000030517578,6529777152.0,3502.163501215752,141.0,0.02546507492661476,2326528.0,2970.535524368286,0.002753880340605974,0.028076171875,2.135537624359131,-0.021129513159394264,0.3119961619377136,-0.02135537564754486,0.00022586248815059662,0.0,0.04815394803881645,0.7863008975982666,0.8666035830324378,7.174077033996582,2.0345330238342285,7.222230911254883,2.1528639793395996,4.678251028060913,2.7435975074768066,,,,,,
8514196000.0,383.94,20.889999389648438,6529777152.0,3529.315949779177,142.0,0.028385045006871223,2342912.0,2975.177783727646,0.004881947301328182,0.0450439453125,2.151027202606201,-0.01954457350075245,0.2341594696044922,-0.021510273218154907,0.0019657015800476074,0.0,0.0459381528198719,0.6913912296295166,0.8775481301104069,7.470254421234131,1.9922733306884766,7.516192436218262,1.9757906198501587,4.642259359359741,2.7510485649108887,,,,,,
8514196000.0,392.55,21.5,6529777152.0,3498.123243403936,143.0,0.025655915960669518,2359296.0,2979.861438035965,0.00534041877835989,0.05828857421875,2.1271181106567383,-0.019809242337942123,0.20759999752044678,-0.021271182224154472,0.0014619389548897743,0.0,0.10721680521965027,0.6227553486824036,0.8728421180964262,7.422307968139648,1.7151504755020142,7.529524803161621,1.746408224105835,4.683654308319092,2.75584077835083,,,,,,
8514196000.0,408.55,22.860000610351562,6529777152.0,3518.638441223109,144.0,0.03419232368469238,2375680.0,2984.5177845954895,0.008689284324645996,0.09613037109375,2.0806491374969482,-0.017888594418764114,0.18456877768039703,-0.020806491374969482,0.002917896956205368,0.0,0.1233203113079071,0.6184552311897278,0.9031799214730051,7.625481605529785,1.9802387952804565,7.748802185058594,1.9875874519348145,4.656346559524536,2.7646310329437256,,,,,,
8514196000.0,407.39,23.889999389648438,6529777152.0,3503.203106985538,145.0,0.03142809495329857,2392064.0,2989.1946473121643,0.008129958994686604,0.086181640625,2.0675783157348633,-0.014178660698235035,0.2059280425310135,-0.02067578211426735,0.006497119553387165,0.0,0.09386874735355377,0.6370475888252258,0.870178618862187,7.60170841217041,1.7631396055221558,7.695577144622803,1.7680670022964478,4.676862716674805,2.7682149410247803,,,,,,
8514196000.0,401.05,24.299999237060547,6529777152.0,3453.3708832987945,146.0,0.02773197367787361,2408448.0,2993.9389972686768,0.010396811179816723,0.07958984375,2.0677998065948486,-0.014716635458171368,0.1959732621908188,-0.020677998661994934,0.0059613632038235664,0.0,0.09100742638111115,0.6255532503128052,0.8698877999500025,7.729485511779785,1.6647592782974243,7.820492744445801,1.7342256307601929,4.744349956512451,2.7564892768859863,,,,,,
8514196000.0,404.43,23.610000610351562,6529777152.0,3450.872807603186,147.0,0.02811083011329174,2424832.0,2998.686781644821,0.0031174507457762957,0.02740478515625,2.057316780090332,-0.019574299454689026,0.22200854122638702,-0.020573165267705917,0.000998862087726593,0.0,0.01135951653122902,0.6712801456451416,0.8744120298863193,7.5203986167907715,1.8983705043792725,7.5317583084106445,1.8942177295684814,4.747784376144409,2.749133348464966,,,,,,
8514196000.0,394.51,21.479999542236328,6529777152.0,3630.205054053066,148.0,0.024738237261772156,2441216.0,3003.200025320053,0.0058916546404361725,0.067626953125,2.0469069480895996,-0.018365172669291496,0.2205560952425003,-0.020469069480895996,0.002103895880281925,0.0,0.06220673769712448,0.66351318359375,0.8633168198728175,7.450956344604492,1.6600379943847656,7.5131635665893555,1.7947012186050415,4.513243675231934,2.7638373374938965,,,,,,
8514196000.0,397.11,20.959999084472656,6529777152.0,3527.567116992716,149.0,0.026713218539953232,2457600.0,3007.844586133957,0.005168640986084938,0.05126953125,2.0770230293273926,-0.018082624301314354,0.2187734991312027,-0.020770233124494553,0.0026876090560108423,0.0,0.04113443195819855,0.650426983833313,0.8658324157132589,7.557957649230957,1.7270715236663818,7.599091529846191,1.775719404220581,4.644560813903809,2.752262592315674,,,,,,
8514196000.0,399.41,21.639999389648438,6529777152.0,3483.48614943803,150.0,0.0310557521879673,2473984.0,3012.5479204654694,0.0039033193606883287,0.0386962890625,2.0862064361572266,-0.018689477816224098,0.20615297555923462,-0.020862065255641937,0.002172586740925908,0.0,0.06530386209487915,0.6427781581878662,0.8597397679133657,7.727638244628906,1.6670671701431274,7.792942047119141,1.7163026332855225,4.703334331512451,2.761779308319092,,,,,,
8514196000.0,400.17,21.850000381469727,6529777152.0,3579.6907229931194,151.0,0.027774415910243988,2490368.0,3017.124852180481,0.0036760966759175062,0.0364990234375,2.0832865238189697,-0.019635319709777832,0.1823703497648239,-0.020832864567637444,0.0011975448578596115,0.0,0.036335304379463196,0.602947473526001,0.8567110769999113,7.885790824890137,1.522944450378418,7.922125816345215,1.5928406715393066,4.576931715011597,2.7560346126556396,,,,,,
8514196000.0,401.63,22.579999923706055,6529777152.0,3419.2807372765787,152.0,0.029060564935207367,2506752.0,3021.9165031909943,0.0031745885498821735,0.0311279296875,2.1255295276641846,-0.019838836044073105,0.18729011714458466,-0.02125529572367668,0.0014164596796035767,0.0,0.07929763197898865,0.594877302646637,0.8499305481129452,7.659147262573242,1.4586215019226074,7.7384443283081055,1.5356099605560303,4.791651010513306,2.7669904232025146,,,,,,
8514196000.0,403.47,23.809999465942383,6529777152.0,3447.2582643654873,153.0,0.02935100719332695,2523136.0,3026.6692657470703,0.0038965714629739523,0.04083251953125,2.089184522628784,-0.0202874056994915,0.13789650797843933,-0.020891843363642693,0.0006044406909495592,0.0,0.08421839773654938,0.5207036733627319,0.8780441662641922,7.9658403396606445,1.5150437355041504,8.050058364868164,1.4910415410995483,4.75276255607605,2.854116201400757,,,,,,
8514196000.0,404.38,23.3700008392334,6529777152.0,3522.0948677735964,154.0,0.029024265706539154,2539520.0,3031.321042776108,0.005458176136016846,0.05316162109375,2.088916301727295,-0.019787300378084183,0.17479850351810455,-0.0208891611546278,0.0011018598452210426,0.0,0.06616368889808655,0.5759465098381042,0.8552111344734239,7.966700553894043,1.5050477981567383,8.03286361694336,1.513609766960144,4.651777029037476,2.7512738704681396,,,,,,
8514196000.0,412.76,23.969999313354492,6529777152.0,3470.793531668404,155.0,0.03182072937488556,2555904.0,3036.041577100754,0.004758534952998161,0.05047607421875,2.078803539276123,-0.01885952427983284,0.16676519811153412,-0.020788036286830902,0.0019285110756754875,0.0,0.03849542886018753,0.5705012679100037,0.8717540109123878,8.168877601623535,1.5013923645019531,8.207372665405273,1.5930678844451904,4.720534324645996,2.7597198486328125,,,,,,
8514196000.0,408.85,24.149999618530273,6529777152.0,3456.43767606112,156.0,0.03146257624030113,2572288.0,3040.7817175388336,0.004786924459040165,0.05035400390625,2.0726335048675537,-0.01665588468313217,0.16983896493911743,-0.020726338028907776,0.00407045055180788,0.0,0.06329647451639175,0.5666409730911255,0.8879952795572187,8.225728988647461,1.628703236579895,8.289024353027344,1.6931214332580566,4.740140438079834,2.814267873764038,,,,,,
8514196000.0,412.35,24.729999542236328,6529777152.0,3447.0801567109147,157.0,0.02873225323855877,2588672.0,3045.534725666046,0.005095378030091524,0.0537109375,2.101363182067871,-0.01871071383357048,0.15432915091514587,-0.02101363055408001,0.0023029157891869545,0.0,0.07835210114717484,0.5520763397216797,0.8644173731987199,8.173736572265625,1.4894744157791138,8.252089500427246,1.499332308769226,4.753008127212524,2.761589527130127,,,,,,
8514196000.0,408.09,24.170000076293945,6529777152.0,3474.604313830957,158.0,0.030112311244010925,2605056.0,3050.250082731247,0.0031060180626809597,0.0301513671875,2.112823724746704,-0.02051805704832077,0.18551547825336456,-0.021128235384821892,0.0006101755425333977,0.0,0.0442291758954525,0.6046389937400818,0.813615986540569,8.46856689453125,1.3460215330123901,8.512796401977539,1.4005321264266968,4.715357065200806,2.7542357444763184,,,,,,
8514196000.0,408.64,24.540000915527344,6529777152.0,3488.951117249654,159.0,0.031748563051223755,2621440.0,3054.946049928665,0.004756496287882328,0.0543212890625,2.1092374324798584,-0.018674630671739578,0.14636458456516266,-0.021092375740408897,0.002417746465653181,0.0,0.05573373660445213,0.523110032081604,0.8966522596907046,8.486833572387695,1.567760944366455,8.542566299438477,1.6272016763687134,4.695967197418213,2.785369634628296,,,,,,
,,,,,,,,,,,,,,,,,,,,,,,,,,0.031249484047293663,1.0190589427947998,0.8529356718063354,0.031249484047293663,1.0190589427947998,0.8529356718063354
,,,,,,,,,,,,,,,,,,,,,,,,,,0.021507607772946358,0.8185626864433289,0.7702568173408508,0.021507607772946358,0.8185626864433289,0.7702568173408508
,,,,,,,,,,,,,,,,,,,,,,,,,,0.01881941221654415,0.7884358763694763,0.7587951421737671,0.01881941221654415,0.7884358763694763,0.7587951421737671
,,,,,,,,,,,,,,,,,,,,,,,,,,0.01759161800146103,0.7512539029121399,0.7263223528862,0.01759161800146103,0.7512539029121399,0.7263223528862
,,,,,,,,,,,,,,,,,,,,,,,,,,0.016986560076475143,0.7533766627311707,0.7330824732780457,0.016986560076475143,0.7533766627311707,0.7330824732780457
,,,,,,,,,,,,,,,,,,,,,,,,,,0.01696910709142685,0.7215762734413147,0.7134084701538086,0.01696910709142685,0.7215762734413147,0.7134084701538086
8514380000.0,416.09,24.639999389648438,6327188480.0,28.191282498238586,160.0,0.027900472283363342,2637824.0,3636.1186163425446,0.0061532845720648766,0.06048583984375,2.1633448600769043,-0.01770962029695511,0.1915901154279709,-0.02163344994187355,0.003923829644918442,0.0,0.1084819883108139,0.6161155700683594,0.8717317115349345,7.040561676025391,1.6822268962860107,7.149043083190918,1.720292091369629,581.1725664138794,2.778357744216919,,,,,,
8514380000.0,411.35,24.40999984741211,6529777152.0,3462.633343437796,161.0,0.033450908958911896,2654208.0,3640.8502752780914,0.0034380059223622084,0.03399658203125,2.1610066890716553,-0.020282208919525146,0.1350700706243515,-0.021610068157315254,0.0013278592377901077,0.0,0.1324690878391266,0.5194299817085266,0.8984920357308805,7.347611904144287,1.6054511070251465,7.480081558227539,1.630336046218872,4.731658935546875,2.9464163780212402,,,,,,
8514380000.0,408.42,24.3700008392334,6529777152.0,3495.1089837394816,162.0,0.02875751256942749,2670592.0,3645.5379688739777,0.006710599176585674,0.0745849609375,2.160133123397827,-0.02205386571586132,0.1651049107313156,-0.02160133235156536,-0.0004525322001427412,0.0,0.1484925001859665,0.5605042576789856,0.8867257396771793,7.4146857261657715,1.6089307069778442,7.563178062438965,1.6653800010681152,4.6876935958862305,2.801353931427002,,,,,,
8514380000.0,409.14,25.190000534057617,6529777152.0,3530.66703275181,163.0,0.03305207937955856,2686976.0,3650.1784517765045,0.004508631303906441,0.05230712890625,2.1290879249572754,-0.020894017070531845,0.11157721281051636,-0.02129087969660759,0.00039686355739831924,0.0,0.1264965683221817,0.4646507501602173,0.9202117156525991,7.630303382873535,1.6311806440353394,7.756799697875977,1.6449658870697021,4.6404829025268555,2.7720324993133545,,,,,,
8514380000.0,415.65,26.3799991607666,6529777152.0,3495.632218844521,164.0,0.033547475934028625,2703360.0,3654.8654437065125,0.005191279575228691,0.05517578125,2.139268636703491,-0.019991986453533173,0.11280790716409683,-0.021392686292529106,0.0014007007703185081,0.0,0.1085812896490097,0.47067680954933167,0.9164645719938551,7.5286712646484375,1.615233063697815,7.6372528076171875,1.6284984350204468,4.686991930007935,2.75091290473938,,,,,,
8514380000.0,409.26,24.520000457763672,6529777152.0,3519.0155661295244,165.0,0.02612716518342495,2719744.0,3659.521291255951,0.005825543776154518,0.05670166015625,2.157345771789551,-0.02110135741531849,0.18469691276550293,-0.02157345600426197,0.00047209952026605606,0.0,0.05431240051984787,0.6104192733764648,0.8710638715732378,7.597105026245117,1.638999342918396,7.6514177322387695,1.6999680995941162,4.655847549438477,2.7613580226898193,,,,,,
8514380000.0,409.26,23.290000915527344,6529777152.0,3498.3786141957466,166.0,0.028564129024744034,2736128.0,3664.2046036720276,0.004361945204436779,0.0428466796875,2.1336801052093506,-0.020267754793167114,0.14576606452465057,-0.02133680135011673,0.0010690493509173393,0.0,0.0880117267370224,0.5097900032997131,0.8806466934727533,7.6131062507629395,1.469683289527893,7.701117992401123,1.4756178855895996,4.68331241607666,2.7467997074127197,,,,,,
8514380000.0,412.38,23.989999771118164,6529777152.0,3588.194371337502,167.0,0.031230980530381203,2752512.0,3668.770688533783,0.002997937612235546,0.02679443359375,2.1393702030181885,-0.020899344235658646,0.10837455838918686,-0.021393701434135437,0.0004943590611219406,0.0,0.1117660254240036,0.45698344707489014,0.9102838614167109,8.120548248291016,1.5187541246414185,8.232314109802246,1.5256861448287964,4.566084861755371,2.7506020069122314,,,,,,
8514380000.0,413.97,24.989999771118164,6529777152.0,3475.263427479368,168.0,0.03342221677303314,2768896.0,3673.4851512908936,0.003942588809877634,0.031494140625,2.1253693103790283,-0.01884337142109871,0.13983693718910217,-0.021253691986203194,0.002410321496427059,0.0,0.06312474608421326,0.5271364450454712,0.884539791412241,8.029778480529785,1.4960075616836548,8.092903137207031,1.5513381958007812,4.714462757110596,2.754697799682617,,,,,,
8514380000.0,407.75,24.559999465942383,6529777152.0,3515.2679108279413,169.0,0.03060620278120041,2785280.0,3678.1459624767303,0.004783726297318935,0.05230712890625,2.1321001052856445,-0.019803013652563095,0.21266406774520874,-0.021321002393960953,0.0015179887413978577,0.0,0.042995911091566086,0.6473075747489929,0.847697261826126,8.045815467834473,1.6282682418823242,8.088811874389648,1.658661127090454,4.660811185836792,2.7490484714508057,,,,,,
8514380000.0,404.14,23.43000030517578,6529777152.0,3464.81740222833,170.0,0.02623176947236061,2801664.0,3682.8746387958527,0.0036050756461918354,0.04046630859375,2.15020489692688,-0.019545890390872955,0.1728052794933319,-0.021502049639821053,0.0019561555236577988,0.0,0.0719221904873848,0.571159839630127,0.8808822941319085,8.038995742797852,1.6014484167099,8.110918045043945,1.6548935174942017,4.7286763191223145,2.747413158416748,,,,,,
8514380000.0,404.75,23.93000030517578,6529777152.0,3642.820661756914,171.0,0.029337149113416672,2818048.0,3687.3722524642944,0.004487854894250631,0.04522705078125,2.1436281204223633,-0.020055169239640236,0.17647774517536163,-0.021436279639601707,0.0013811103999614716,0.0,0.036225877702236176,0.584705114364624,0.8759688275365802,8.328592300415039,1.5643024444580078,8.364816665649414,1.66023588180542,4.4976136684417725,2.739783525466919,,,,,,
8514380000.0,406.06,24.489999771118164,6529777152.0,3563.6327849660015,172.0,0.03049680031836033,2834432.0,3691.969808101654,0.004392998293042183,0.0513916015625,2.1224780082702637,-0.02046964503824711,0.13147282600402832,-0.02122478000819683,0.0007551349699497223,0.0,0.09352797269821167,0.5021601319313049,0.8716956266662195,8.194324493408203,1.4445680379867554,8.287853240966797,1.4019156694412231,4.597555637359619,2.761348247528076,,,,,,
8514380000.0,398.99,23.479999542236328,6529777152.0,3599.8528164452923,173.0,0.033192653208971024,2850816.0,3696.5211052894592,0.006122008431702852,0.0721435546875,2.1442184448242188,-0.02067612111568451,0.16838917136192322,-0.02144218236207962,0.0007660642731934786,0.0,0.037246573716402054,0.5639122128486633,0.8656519739812835,8.087514877319336,1.4417088031768799,8.124761581420898,1.538492202758789,4.551297187805176,2.760889768600464,,,,,,
8514380000.0,399.13,23.829999923706055,6529777152.0,3530.587763389016,174.0,0.0298859141767025,2867200.0,3701.161692380905,0.0030557760037481785,0.02520751953125,2.1395483016967773,-0.021544160321354866,0.14895957708358765,-0.021395482122898102,-0.00014867959544062614,0.0,0.09409629553556442,0.5437370538711548,0.8513644210340587,8.068740844726562,1.3364393711090088,8.162837982177734,1.4103559255599976,4.640587091445923,2.7506227493286133,,,,,,
8514380000.0,391.1,23.3700008392334,6529777152.0,3519.873181978317,175.0,0.028476886451244354,2883584.0,3705.8164055347443,0.004733589012175798,0.04559326171875,2.163763999938965,-0.02139713056385517,0.16508549451828003,-0.02163763903081417,0.0002405066043138504,0.0,0.04113379493355751,0.5656194090843201,0.8629393073518732,8.063209533691406,1.4469610452651978,8.10434341430664,1.5278056859970093,4.654713153839111,2.7460808753967285,,,,,,
8514380000.0,401.99,24.209999084472656,6529777152.0,3478.790441677118,176.0,0.0291521567851305,2899968.0,3710.526088476181,0.006734597031027079,0.07464599609375,2.142580509185791,-0.018902644515037537,0.12335633486509323,-0.021425804123282433,0.0025231540203094482,0.0,0.08681376278400421,0.4827602207660675,0.9127791762731675,7.9768900871276855,1.5467324256896973,8.063703536987305,1.6346380710601807,4.709682941436768,2.798795223236084,,,,,,
8514380000.0,404.36,24.209999084472656,6529777152.0,3597.866495833024,177.0,0.03133396804332733,2916352.0,3715.0798983573914,0.003358759917318821,0.0272216796875,2.134157180786133,-0.020192088559269905,0.12359712272882462,-0.02134157344698906,0.0011494867503643036,0.0,0.08473774045705795,0.4889940023422241,0.9049670716720675,8.063957214355469,1.5461506843566895,8.14869499206543,1.5862319469451904,4.553809881210327,2.7468931674957275,,,,,,
8514380000.0,411.65,25.09000015258789,6529777152.0,3513.596204141903,178.0,0.034027352929115295,2932736.0,3719.7429270744324,0.0031605937983840704,0.0372314453125,2.1476187705993652,-0.021032871678471565,0.10978115350008011,-0.02147618681192398,0.0004433169960975647,0.0,0.0996595025062561,0.45964428782463074,0.8747399455910134,8.178779602050781,1.2805376052856445,8.278438568115234,1.2987196445465088,4.663028717041016,2.771801471710205,,,,,,
8514380000.0,415.42,25.459999084472656,6529777152.0,3562.10328332839,179.0,0.029430974274873734,2949120.0,3724.342456817627,0.0029631308279931545,0.0279541015625,2.1794331073760986,-0.020266132429242134,0.10638180375099182,-0.021794332191348076,0.0015281978994607925,0.0,0.0751660093665123,0.4570944905281067,0.8709024834324326,8.271720886230469,1.2542986869812012,8.346887588500977,1.2721797227859497,4.59952974319458,2.8088877201080322,,,,,,
8514380000.0,415.06,25.420000076293945,6529777152.0,3447.026555097593,180.0,0.03126921504735947,2965504.0,3729.095538854599,0.0035105946008116007,0.04046630859375,2.167440891265869,-0.019273553043603897,0.10607943683862686,-0.02167440578341484,0.0024008541367948055,0.0,0.08234548568725586,0.4606582224369049,0.9078240570086716,8.41706371307373,1.477793574333191,8.499408721923828,1.5172926187515259,4.753082036972046,2.7578885555267334,,,,,,
8514380000.0,411.94,24.989999771118164,6529777152.0,3565.158051840034,181.0,0.032061535865068436,2981888.0,3733.691127538681,0.0072529930621385574,0.08154296875,2.1722166538238525,-0.018960051238536835,0.11149892956018448,-0.02172216586768627,0.002762116491794586,0.0,0.037812892347574234,0.4715697467327118,0.8592866627184602,8.640118598937988,1.2117340564727783,8.67793083190918,1.2571238279342651,4.595588684082031,2.751666307449341,,,,,,
8514380000.0,409.52,25.100000381469727,6529777152.0,3546.6531785469615,182.0,0.029590316116809845,2998272.0,3738.3106939792633,0.0027402061969041824,0.02294921875,2.1722774505615234,-0.020191751420497894,0.13393715023994446,-0.02172277309000492,0.0015310216695070267,0.0,0.04308326542377472,0.5134552717208862,0.8829846221592244,8.511659622192383,1.4191147089004517,8.554742813110352,1.500998854637146,4.619566440582275,2.776888847351074,,,,,,
8514380000.0,409.84,25.1299991607666,6529777152.0,3576.2365150995925,183.0,0.03446757048368454,3014656.0,3742.8920464515686,0.004981431178748608,0.05255126953125,2.1683435440063477,-0.01881697028875351,0.15539972484111786,-0.021683434024453163,0.002866461407393217,0.0,0.07706188410520554,0.5442460775375366,0.8169258539074666,8.562589645385742,1.235549807548523,8.639652252197266,1.271990418434143,4.581352472305298,2.760429859161377,,,,,,
