CpuMaxMemory,EpLenMean,EpRewMean,GpuMaxMemory,IPS_total,Iter,Misc/FrameRewMean,Misc/InteractCount,Misc/TimeElapsed,Opt/approxkl,Opt/clipfrac,Opt/entropy,Opt/loss_pi,Opt/loss_vf,Opt/negent,Opt/pg,Opt/pi_kl,VFStats/AdvMean,VFStats/AdvStd,VFStats/EV,VFStats/VpredMean,VFStats/VpredStd,VFStats/VtargMean,VFStats/VtargStd,del_time,wait_optimization,scaled/pol_distance,scaled/vf_aux,scaled/vf_true,unscaled/pol_distance,unscaled/vf_aux,unscaled/vf_true
2365884000.0,83.17,-2.490000009536743,6317166080.0,3610.0161446488587,0.0,-0.015116099268198013,16384.0,4.5384838581085205,0.004980092868208885,0.03948974609375,2.703169584274292,-0.02738078311085701,0.16058772802352905,-0.02703169547021389,-0.0003490811213850975,0.0,-0.22103801369667053,0.556801438331604,0.0012139589155324426,0.018080126494169235,0.013894383795559406,-0.2029578685760498,0.5571396350860596,4.5384838581085205,2.7229630947113037,,,,,,
2564856000.0,75.18,-1.9800000190734863,6519754752.0,3468.7083846972264,1.0,-0.012636108323931694,32768.0,9.261855840682983,0.0029690267983824015,0.01953125,2.7000296115875244,-0.02671036496758461,0.14887958765029907,-0.027000296860933304,0.00028992933221161366,0.0,-0.12076540291309357,0.5377877354621887,0.01667852520072044,-0.20314911007881165,0.05063366889953613,-0.3239145278930664,0.5423293709754944,4.723371982574463,2.718033790588379,,,,,,
2762592000.0,80.04,-2.4600000381469727,6519754752.0,3549.784360632323,2.0,-0.013239027932286263,49152.0,13.877347469329834,0.0009980022441595793,0.0,2.702746868133545,-0.026546943932771683,0.14689253270626068,-0.027027470991015434,0.0004805196076631546,0.0,-0.13284794986248016,0.5368642210960388,0.01364773357473692,-0.20579777657985687,0.04426508769392967,-0.33864572644233704,0.5405656099319458,4.615491628646851,2.7233128547668457,,,,,,
2960592000.0,77.78,-1.8600000143051147,6519754752.0,3611.6045403764642,3.0,-0.010626047849655151,65536.0,18.413835287094116,0.0028659270610660315,0.03179931640625,2.6920905113220215,-0.027904711663722992,0.15196476876735687,-0.02692090906202793,-0.000983808422461152,0.0,-0.04479867219924927,0.5492783188819885,0.06580299349270835,-0.47938138246536255,0.09816360473632812,-0.5241800546646118,0.5682942271232605,4.536487817764282,2.728938579559326,,,,,,
3158592000.0,73.2,-2.6700000762939453,6519754752.0,3647.2988810636607,4.0,-0.013044720515608788,81920.0,22.90592670440674,0.0009906953200697899,0.0,2.6862292289733887,-0.02641255035996437,0.14744126796722412,-0.026862293481826782,0.00044974125921726227,0.0,-0.10034595429897308,0.540465235710144,0.07606408395495179,-0.278194785118103,0.09044840931892395,-0.3785407543182373,0.5622724890708923,4.492091417312622,2.732893228530884,,,,,,
3356328000.0,82.47,-1.350000023841858,6519754752.0,3442.4737435989764,5.0,-0.00752370897680521,98304.0,27.665294885635376,0.0008629959775134921,0.0,2.682802677154541,-0.026965083554387093,0.1222294494509697,-0.02682802453637123,-0.00013706134632229805,0.0,-0.009701891802251339,0.49056628346443176,0.23036814694903418,-0.49485498666763306,0.2327706217765808,-0.5045568943023682,0.559185802936554,4.759368181228638,2.7295243740081787,,,,,,
3554328000.0,76.84,-1.850000023841858,6519754752.0,3549.168533592423,6.0,-0.00958073977380991,114688.0,32.28158736228943,0.0024514885153621435,0.0089111328125,2.6563003063201904,-0.026570141315460205,0.12693974375724792,-0.026563001796603203,-7.141381502151489e-06,0.0,-0.024704039096832275,0.507849931716919,0.1457072514038502,-0.42910072207450867,0.18743079900741577,-0.45380473136901855,0.5494548678398132,4.616292476654053,2.7383952140808105,,,,,,
3752952000.0,77.4,-1.7000000476837158,6519754752.0,3435.8534101379746,7.0,-0.009629523381590843,131072.0,37.05012607574463,0.0016873234417289495,0.00823974609375,2.6567630767822266,-0.026742897927761078,0.12911544740200043,-0.026567630469799042,-0.0001752655953168869,0.0,0.004424974322319031,0.5205763578414917,0.30920739519658835,-0.580988883972168,0.2523849904537201,-0.576563835144043,0.6263405680656433,4.7685387134552,2.743682861328125,,,,,,
3949896000.0,76.35,-1.3300000429153442,6519754752.0,3478.5771891373815,8.0,-0.00792444683611393,147456.0,41.76009774208069,0.003141683293506503,0.0081787109375,2.6518607139587402,-0.026712294667959213,0.12566204369068146,-0.026518603786826134,-0.00019369274377822876,0.0,0.04388550668954849,0.49840232729911804,0.3726993219306348,-0.558661937713623,0.3875613510608673,-0.5147764682769775,0.6292774677276611,4.70997166633606,2.7434561252593994,,,,,,
4147896000.0,76.75,-1.2300000190734863,6519754752.0,3481.523478854726,9.0,-0.008344915695488453,163840.0,46.46608352661133,0.0015739720547571778,0.0069580078125,2.6428186893463135,-0.025739042088389397,0.135422945022583,-0.026428183540701866,0.0006891386583447456,0.0,-0.024305658414959908,0.5056756734848022,0.2729166741661173,-0.3807417154312134,0.22557052969932556,-0.40504735708236694,0.593034565448761,4.70598578453064,2.7553625106811523,,,,,,
4345632000.0,75.85,-1.9299999475479126,6519754752.0,3592.5399616130626,10.0,-0.011481903493404388,180224.0,51.02664518356323,0.0026160781271755695,0.01947021484375,2.654270887374878,-0.02508152648806572,0.14672668278217316,-0.02654271014034748,0.001461178995668888,0.0,-0.0033436384983360767,0.5434006452560425,0.3340216098017592,-0.5650899410247803,0.2849959135055542,-0.5684336423873901,0.6658709645271301,4.560561656951904,2.7541375160217285,,,,,,
4543368000.0,72.2,-1.2999999523162842,6519754752.0,3529.9414065331225,11.0,-0.007471676450222731,196608.0,55.66808199882507,0.006709245033562183,0.05010986328125,2.584385633468628,-0.02490624040365219,0.12795425951480865,-0.02584385685622692,0.0009376159869134426,0.0,0.018262211233377457,0.5046157240867615,0.42865726207202237,-0.47113072872161865,0.360885888338089,-0.4528685212135315,0.6675939559936523,4.641436815261841,2.7482337951660156,,,,,,
4741368000.0,74.52,-1.159999966621399,6519754752.0,3431.1535806921647,12.0,-0.008709891699254513,212992.0,60.44315242767334,0.0018279773648828268,0.01556396484375,2.66239070892334,-0.0258939191699028,0.1395389288663864,-0.026623906567692757,0.0007299873977899551,0.0,-0.0037219685036689043,0.507722795009613,0.45321649146494536,-0.4382377862930298,0.4019998610019684,-0.4419597387313843,0.6866239905357361,4.775070428848267,2.7632765769958496,,,,,,
4940160000.0,79.69,-1.600000023841858,6519754752.0,3507.031914641704,13.0,-0.009047253988683224,229376.0,65.1149091720581,0.003981572575867176,0.03814697265625,2.6292784214019775,-0.02641403302550316,0.14707417786121368,-0.02629278600215912,-0.00012124795466661453,0.0,0.02369525283575058,0.5315590500831604,0.46042521162750394,-0.5660108923912048,0.40255266427993774,-0.542315661907196,0.7236452698707581,4.671756744384766,2.7560110092163086,,,,,,
5137104000.0,78.98,-1.7300000190734863,6519754752.0,3545.3609865341296,14.0,-0.009787792339920998,245760.0,69.736159324646,0.0006102571496739984,6.103515625e-05,2.651512861251831,-0.0265745110809803,0.1267220824956894,-0.02651512622833252,-5.938485264778137e-05,0.0,-0.012021530419588089,0.5101726055145264,0.4903088237303618,-0.4745182394981384,0.40241459012031555,-0.4865397810935974,0.7146009206771851,4.621250152587891,2.7483115196228027,,,,,,
5335104000.0,79.92,-1.9600000381469727,6519754752.0,3507.617807421026,15.0,-0.011143294163048267,262144.0,74.40713572502136,0.002875313861295581,0.01910400390625,2.62967586517334,-0.025919141247868538,0.13496917486190796,-0.02629675902426243,0.0003776177763938904,0.0,-0.014715097844600677,0.5220630764961243,0.5011246762063596,-0.4788040518760681,0.4291428029537201,-0.4935191869735718,0.7391405701637268,4.670976400375366,2.7498738765716553,,,,,,
5532840000.0,75.76,-1.7100000381469727,6519754752.0,3573.703289464994,16.0,-0.010849710553884506,278528.0,78.9917356967926,0.0034329667687416077,0.02484130859375,2.665055751800537,-0.02544192224740982,0.13799597322940826,-0.026650559157133102,0.001208634115755558,0.0,0.016450461000204086,0.5176903605461121,0.5767605807525167,-0.5243284702301025,0.5523343086242676,-0.5078780055046082,0.7957506775856018,4.58459997177124,2.7475318908691406,,,,,,
5730576000.0,74.92,-1.5399999618530273,6519754752.0,3517.7619786927044,17.0,-0.011058163829147816,294912.0,83.64924240112305,0.003052780870348215,0.02862548828125,2.6453895568847656,-0.027062788605690002,0.157213032245636,-0.02645389549434185,-0.0006088940426707268,0.0,-0.00018750340677797794,0.5348636507987976,0.5490370578907158,-0.44948142766952515,0.5046842098236084,-0.4496689438819885,0.7964759469032288,4.657506704330444,2.7534070014953613,,,,,,
5928576000.0,73.98,-1.7699999809265137,6519754752.0,3524.237483515269,18.0,-0.008802689611911774,311296.0,88.29819130897522,0.00128641608171165,0.01141357421875,2.6384549140930176,-0.026309233158826828,0.11812261492013931,-0.02638455107808113,7.532164454460144e-05,0.0,-0.0345560759305954,0.4672790765762329,0.4913484655846092,-0.22619077563285828,0.4254200756549835,-0.26074686646461487,0.6551883816719055,4.648948907852173,2.7690114974975586,,,,,,
6127368000.0,72.97,-1.7899999618530273,6519754752.0,3435.8939522656096,19.0,-0.011062301695346832,327680.0,93.06667375564575,0.0029355071019381285,0.0172119140625,2.5982608795166016,-0.02600007690489292,0.11015879362821579,-0.025982609018683434,-1.746881753206253e-05,0.0,-0.03562980517745018,0.48202383518218994,0.6445025570072338,-0.4062558114528656,0.543189287185669,-0.44188565015792847,0.808444619178772,4.768482446670532,2.7610268592834473,,,,,,
6324312000.0,75.49,-1.9900000095367432,6519754752.0,3464.4491839778693,20.0,-0.009986229240894318,344064.0,97.79585266113281,0.0012289003934711218,0.00091552734375,2.601262331008911,-0.025910913944244385,0.11102406680583954,-0.026012621819972992,0.00010171113535761833,0.0,-0.005065943114459515,0.4749256372451782,0.6724468747321273,-0.4210777282714844,0.6719153523445129,-0.4261436462402344,0.8298215270042419,4.7291789054870605,2.7619924545288086,,,,,,
6522048000.0,73.76,-1.2699999809265137,6519754752.0,3525.2797486731365,21.0,-0.009476367384195328,360448.0,102.44342708587646,0.0016384085174649954,0.003662109375,2.620218515396118,-0.026216678321361542,0.10282592475414276,-0.026202185079455376,-1.4492776244878769e-05,0.0,-0.014382254332304,0.43895888328552246,0.6868880219139011,-0.3674100637435913,0.5914368629455566,-0.3817923069000244,0.7844657897949219,4.647574424743652,2.7566983699798584,,,,,,
6719784000.0,77.5,-0.7200000286102295,6519754752.0,3483.4437700881217,22.0,-0.007072954438626766,376832.0,107.1468186378479,0.0022928141988813877,0.01953125,2.600389003753662,-0.026538517326116562,0.10214141011238098,-0.026003887876868248,-0.0005346313118934631,0.0,-0.0070724645629525185,0.4282054901123047,0.6725526021048531,-0.22503028810024261,0.6011244654655457,-0.23210275173187256,0.7483097910881042,4.7033915519714355,2.7551817893981934,,,,,,
6917784000.0,73.14,-1.0499999523162842,6519754752.0,3523.067229473081,23.0,-0.006309764459729195,393216.0,111.79731178283691,0.0034745391458272934,0.03179931640625,2.6181981563568115,-0.0265764482319355,0.0939265564084053,-0.026181982830166817,-0.0003944654017686844,0.0,-0.010211113840341568,0.4068015217781067,0.5346255438373818,-0.1132739931344986,0.4118745028972626,-0.12348510324954987,0.5963225960731506,4.650493144989014,2.7609763145446777,,,,,,
7115784000.0,77.61,-0.8700000047683716,6519754752.0,3499.6750979160224,24.0,-0.005760109983384609,409600.0,116.47888922691345,0.0033254260197281837,0.03448486328125,2.588456153869629,-0.02555253356695175,0.08616407215595245,-0.025884561240673065,0.00033202674239873886,0.0,0.010534876957535744,0.4146333336830139,0.6398564785173695,-0.28453630208969116,0.483177125453949,-0.27400141954421997,0.6909179091453552,4.681577444076538,2.762605905532837,,,,,,
7314576000.0,74.74,-0.7400000095367432,6519754752.0,3513.543028958932,25.0,-0.005892002955079079,425984.0,121.14198851585388,0.003606524085626006,0.0279541015625,2.6367392539978027,-0.02515845187008381,0.07945878803730011,-0.026367392390966415,0.0012089405208826065,0.0,-0.019223878160119057,0.40315189957618713,0.6394171969508455,-0.12915751338005066,0.4949690103530884,-0.14838139712810516,0.6713765859603882,4.66309928894043,2.7746803760528564,,,,,,
7511520000.0,73.84,-1.4299999475479126,6519754752.0,3536.898710983096,26.0,-0.00773644121363759,442368.0,125.77429533004761,0.002983580809086561,0.0177001953125,2.6157236099243164,-0.027448050677776337,0.09726712852716446,-0.026157233864068985,-0.0012908130884170532,0.0,-0.030602525919675827,0.43987923860549927,0.7044786402502352,-0.2509845495223999,0.632727861404419,-0.2815870940685272,0.8091685771942139,4.632306814193726,2.7619571685791016,,,,,,
7709256000.0,73.13,-0.7300000190734863,6519754752.0,3502.582268674265,27.0,-0.005911184009164572,458752.0,130.45198702812195,0.0035549562890082598,0.0238037109375,2.6077475547790527,-0.026326175779104233,0.07982611656188965,-0.026077475398778915,-0.0002486992161720991,0.0,-0.026819368824362755,0.38168951869010925,0.7106162601739687,-0.1381831020116806,0.5482704639434814,-0.1650024652481079,0.7095338702201843,4.677691698074341,2.7693605422973633,,,,,,
7906992000.0,75.61,-0.7799999713897705,6519754752.0,3491.8181350520745,28.0,-0.0038174111396074295,475136.0,135.14409852027893,0.0022297482937574387,0.00885009765625,2.6128761768341064,-0.026038428768515587,0.08218050748109818,-0.02612875960767269,9.032990783452988e-05,0.0,0.01346620824187994,0.394470751285553,0.6912479033318419,-0.21742285788059235,0.5702134966850281,-0.20395663380622864,0.7099206447601318,4.692111492156982,2.771909475326538,,,,,,
8104992000.0,78.87,-0.7900000214576721,6519754752.0,3526.4599786850763,29.0,-0.005174557212740183,491520.0,139.79011750221252,0.003928861580789089,0.0478515625,2.6067073345184326,-0.02616160921752453,0.07132848352193832,-0.02606707438826561,-9.453669190406799e-05,0.0,0.026237167418003082,0.3795353174209595,0.7317646170179233,-0.2556907832622528,0.6180612444877625,-0.22945362329483032,0.7328147292137146,4.646018981933594,2.7643911838531494,,,,,,
8302728000.0,74.68,-0.4300000071525574,6519754752.0,3520.913408131794,30.0,-0.004207569174468517,507904.0,144.44345545768738,0.0034277753438800573,0.04095458984375,2.6302523612976074,-0.025394558906555176,0.08063096553087234,-0.02630252204835415,0.0009079610463231802,0.0,0.010377423837780952,0.4001614451408386,0.7318742190277507,-0.19529320299625397,0.6703270673751831,-0.18491576611995697,0.7727980017662048,4.6533379554748535,2.879312753677368,,,,,,
8501520000.0,78.28,-0.8999999761581421,6519754752.0,3496.4697565274378,31.0,-0.005005219019949436,524288.0,149.12932467460632,0.006047273986041546,0.07220458984375,2.573547840118408,-0.02432551234960556,0.08325237780809402,-0.02573547512292862,0.0014099669642746449,0.0,0.03215038776397705,0.40607890486717224,0.7775643778380679,-0.3445976674556732,0.7736068964004517,-0.31244727969169617,0.8610101938247681,4.685869216918945,2.7672128677368164,,,,,,
,,,,,,,,,,,,,,,,,,,,,,,,,,0.00216978439129889,0.1507139503955841,0.12707990407943726,0.00216978439129889,0.1507139503955841,0.12707990407943726
,,,,,,,,,,,,,,,,,,,,,,,,,,0.0017286227084696293,0.10893980413675308,0.10198903828859329,0.0017286227084696293,0.10893980413675308,0.10198903828859329
,,,,,,,,,,,,,,,,,,,,,,,,,,0.0016239737160503864,0.09681928902864456,0.09732240438461304,0.0016239737160503864,0.09681928902864456,0.09732240438461304
,,,,,,,,,,,,,,,,,,,,,,,,,,0.001105395145714283,0.08982697129249573,0.0906004011631012,0.001105395145714283,0.08982697129249573,0.0906004011631012
,,,,,,,,,,,,,,,,,,,,,,,,,,0.0012415734818205237,0.08882533013820648,0.08978310972452164,0.0012415734818205237,0.08882533013820648,0.08978310972452164
,,,,,,,,,,,,,,,,,,,,,,,,,,0.0010674502700567245,0.08709309250116348,0.08814544230699539,0.0010674502700567245,0.08709309250116348,0.08814544230699539
8526084000.0,73.82,-0.8299999833106995,6327188480.0,28.148639789919827,32.0,-0.005998347885906696,540672.0,731.1823163032532,0.0031995964236557484,0.02984619140625,2.607192039489746,-0.028372446075081825,0.06608787178993225,-0.02607191912829876,-0.002300526015460491,0.0,0.04401250183582306,0.3687732517719269,0.7758341769558054,-0.3645574152469635,0.6282155513763428,-0.32054492831230164,0.7788874506950378,582.0529916286469,2.809441566467285,,,,,,
8526084000.0,75.17,-0.49000000953674316,6529777152.0,3512.128728879792,33.0,-0.0028433920815587044,557056.0,735.8472933769226,0.002944143256172538,0.03277587890625,2.5925257205963135,-0.02776467055082321,0.06416463851928711,-0.025925256311893463,-0.0018394100479781628,0.0,0.051261674612760544,0.358602911233902,0.7121360600332943,-0.2603718936443329,0.5786658525466919,-0.20911021530628204,0.6683748960494995,4.664977073669434,2.7953996658325195,,,,,,
8526084000.0,72.04,-0.6899999976158142,6529777152.0,3549.8769640055643,34.0,-0.0032734544947743416,573440.0,740.462664604187,0.0021174470894038677,0.020263671875,2.5427544116973877,-0.026057938113808632,0.05993921682238579,-0.025427546352148056,-0.0006303936243057251,0.0,0.03274169936776161,0.35355255007743835,0.7367057481691288,-0.21437421441078186,0.5982499122619629,-0.18163251876831055,0.6890222430229187,4.615371227264404,2.787679433822632,,,,,,
8526084000.0,73.43,0.30000001192092896,6529777152.0,3534.083529667088,35.0,0.0005756161990575492,589824.0,745.0986614227295,0.003686796873807907,0.0418701171875,2.5728344917297363,-0.027467288076877594,0.048463523387908936,-0.025728344917297363,-0.0017389426939189434,0.0,0.06519577652215958,0.31384938955307007,0.7577896479645811,-0.14010725915431976,0.5887170433998108,-0.07491148263216019,0.6377125978469849,4.6359968185424805,2.7680623531341553,,,,,,
8526084000.0,77.9,-0.07000000029802322,6529777152.0,3549.4284785748628,36.0,0.00025719543918967247,606208.0,749.7146158218384,0.0036952984519302845,0.042236328125,2.5563089847564697,-0.024835672229528427,0.06246057152748108,-0.025563087314367294,0.0007274113595485687,0.0,0.03415927290916443,0.3511263430118561,0.7272361796532267,-0.0919814258813858,0.571836531162262,-0.057822152972221375,0.6723107099533081,4.615954399108887,2.768867254257202,,,,,,
8526084000.0,80.49,-0.550000011920929,6529777152.0,3582.145430373655,37.0,-0.002840756205841899,622592.0,754.2884111404419,0.0039009610190987587,0.04058837890625,2.588871955871582,-0.025280945003032684,0.07184534519910812,-0.02588871866464615,0.0006077773869037628,0.0,-0.018889963626861572,0.38342541456222534,0.7339833390435997,-0.07727895677089691,0.6038531064987183,-0.09616892039775848,0.7434067130088806,4.573795318603516,2.764106273651123,,,,,,
8526084000.0,72.62,-0.28999999165534973,6529777152.0,3519.5099329859104,38.0,-0.00038977855001576245,638976.0,758.9436047077179,0.0030862840358167887,0.0347900390625,2.5651040077209473,-0.02617526799440384,0.048133574426174164,-0.025651035830378532,-0.0005242284387350082,0.0,0.03244192525744438,0.31242555379867554,0.7856767307561527,-0.08016034960746765,0.6414769887924194,-0.04771842435002327,0.6748571991920471,4.655193567276001,2.753908634185791,,,,,,
8526084000.0,79.64,0.8399999737739563,6529777152.0,3547.4580264688225,39.0,0.0032012811861932278,655360.0,763.5621230602264,0.00486255856230855,0.060791015625,2.58789324760437,-0.026716478168964386,0.03797458857297897,-0.02587893232703209,-0.0008375449106097221,0.0,0.06955887377262115,0.2770135700702667,0.7851483709402662,-0.005867127329111099,0.5548393726348877,0.06369175016880035,0.5976290702819824,4.618518352508545,2.764738082885742,,,,,,
8526084000.0,76.27,0.4399999976158142,6529777152.0,3572.6866202803085,40.0,0.0037107940297573805,671744.0,768.1480276584625,0.0038206223398447037,0.04779052734375,2.5627968311309814,-0.026030130684375763,0.043183788657188416,-0.025627970695495605,-0.00040215998888015747,0.0,0.009236585348844528,0.30004966259002686,0.7497958757303417,0.13380858302116394,0.49626657366752625,0.14304518699645996,0.5998545289039612,4.585904598236084,2.773698329925537,,,,,,
8526084000.0,78.09,0.3400000035762787,6529777152.0,3422.8163595729834,41.0,0.004588757641613483,688128.0,772.9347290992737,0.005909868981689215,0.078369140625,2.5519914627075195,-0.023804470896720886,0.03570203483104706,-0.02551991492509842,0.0017154384404420853,0.0,0.020330386236310005,0.26985716819763184,0.7870642785152352,0.16407570242881775,0.5178749561309814,0.1844061017036438,0.5848031640052795,4.786701440811157,2.7640957832336426,,,,,,
8526084000.0,73.04,1.0399999618530273,6529777152.0,3552.1943540666343,42.0,0.007694500498473644,704512.0,777.5470893383026,0.00427524046972394,0.05023193359375,2.5530316829681396,-0.02521202713251114,0.032297372817993164,-0.025530314072966576,0.00031828880310058594,0.0,0.034078504890203476,0.26518139243125916,0.8187746810400385,0.22627659142017365,0.5818034410476685,0.2603551149368286,0.6229219436645508,4.612360239028931,2.7611541748046875,,,,,,
8526084000.0,83.16,0.949999988079071,6529777152.0,3520.580425587724,43.0,0.005501478910446167,720896.0,782.2008674144745,0.004760541021823883,0.056640625,2.5422654151916504,-0.026456216350197792,0.02477959729731083,-0.025422655045986176,-0.0010335617698729038,0.0,-0.00792428757995367,0.22292813658714294,0.8594126826521173,0.26543328166007996,0.5302363038063049,0.2575089931488037,0.5945546627044678,4.653778076171875,2.7650673389434814,,,,,,
8526084000.0,79.02,0.9300000071525574,6529777152.0,3528.6564690182936,44.0,0.006729688961058855,737280.0,786.8439943790436,0.0035400877241045237,0.03826904296875,2.5474019050598145,-0.024060703814029694,0.03744358569383621,-0.025474021211266518,0.0014133220538496971,0.0,0.01612209342420101,0.26896601915359497,0.8220018255800939,0.21667557954788208,0.5710201859474182,0.23279766738414764,0.6375138163566589,4.643126964569092,2.7655885219573975,,,,,,
8526084000.0,82.63,0.8299999833106995,6529777152.0,3537.9111397839233,45.0,0.0073592159897089005,753664.0,791.4749755859375,0.006900044158101082,0.07684326171875,2.5223515033721924,-0.022281691431999207,0.030286084860563278,-0.025223515927791595,0.002941824495792389,0.0,0.025628652423620224,0.2481389045715332,0.866737761868343,0.2184697836637497,0.6039049029350281,0.24409842491149902,0.6797376275062561,4.630981206893921,2.7645633220672607,,,,,,
8526084000.0,86.05,1.3700000047683716,6529777152.0,3531.02115813032,46.0,0.008402619510889053,770048.0,796.114993095398,0.007027022540569305,0.08123779296875,2.5513453483581543,-0.026629582047462463,0.02061605453491211,-0.025513451546430588,-0.0011161286383867264,0.0,0.013145948760211468,0.209943488240242,0.8733961318330719,0.3173028230667114,0.568360447883606,0.33044880628585815,0.5900365710258484,4.640017509460449,2.7670323848724365,,,,,,
8526084000.0,84.89,1.0299999713897705,6529777152.0,3550.3965493519986,47.0,0.00796874612569809,786432.0,800.7296888828278,0.006468433886766434,0.07421875,2.5060222148895264,-0.024198194965720177,0.021443676203489304,-0.025060223415493965,0.0008620265871286392,0.0,0.022618276998400688,0.20745156705379486,0.846245898256597,0.29886630177497864,0.502953290939331,0.3214845657348633,0.529058039188385,4.61469578742981,2.757478713989258,,,,,,
8526084000.0,83.24,1.350000023841858,6529777152.0,3557.613627379172,48.0,0.008918595500290394,802816.0,805.3350231647491,0.004336347337812185,0.05364990234375,2.5290095806121826,-0.02552889473736286,0.021718068048357964,-0.025290098041296005,-0.00023879832588136196,0.0,0.030263425782322884,0.2081197053194046,0.8542705293617774,0.30987972021102905,0.48878952860832214,0.3401431441307068,0.545179545879364,4.605334281921387,2.7621827125549316,,,,,,
8526084000.0,86.05,1.5399999618530273,6529777152.0,3507.0505284499905,49.0,0.010896246880292892,819200.0,810.0067551136017,0.0070774005725979805,0.07305908203125,2.5138731002807617,-0.02435319311916828,0.02265150099992752,-0.02513873390853405,0.0007855407893657684,0.0,0.03606202453374863,0.21351449191570282,0.8799150898375142,0.34244459867477417,0.5592369437217712,0.378506600856781,0.6161453723907471,4.671731948852539,2.767951250076294,,,,,,
8526084000.0,85.37,1.350000023841858,6529777152.0,3579.337395433018,50.0,0.00915711559355259,835584.0,814.5841386318207,0.006508916616439819,0.07940673828125,2.511167287826538,-0.021515976637601852,0.024691114202141762,-0.025111671537160873,0.0035956930369138718,0.0,0.03839103877544403,0.22399240732192993,0.8316877686711509,0.33316874504089355,0.5030407309532166,0.371559739112854,0.5459783673286438,4.577383518218994,2.7613766193389893,,,,,,
8526084000.0,83.56,1.2400000095367432,6529777152.0,3498.7531898490784,51.0,0.009118672460317612,851968.0,819.2669496536255,0.012454783543944359,0.13653564453125,2.484412908554077,-0.020713120698928833,0.03812948986887932,-0.024844126775860786,0.004131008870899677,0.0,-0.001154598779976368,0.2868477404117584,0.810602956705857,0.4338610768318176,0.5618124604225159,0.43270647525787354,0.6591205596923828,4.68281102180481,2.7641007900238037,,,,,,
8526084000.0,84.78,1.399999976158142,6529777152.0,3540.538143019973,52.0,0.008607427589595318,868352.0,823.8944947719574,0.010351959615945816,0.12115478515625,2.491170644760132,-0.019032152369618416,0.0321863554418087,-0.024911705404520035,0.005879552103579044,0.0,0.014061947353184223,0.2518308758735657,0.8245750414316442,0.40481311082839966,0.5623472332954407,0.4188750982284546,0.6012613773345947,4.627545118331909,2.767712354660034,,,,,,
8526084000.0,82.19,1.8300000429153442,6529777152.0,3547.2915709526433,53.0,0.01186186820268631,884736.0,828.5132298469543,0.005918172653764486,0.07763671875,2.5159449577331543,-0.027246983721852303,0.026367049664258957,-0.025159448385238647,-0.0020875316113233566,0.0,0.02863340824842453,0.2337338924407959,0.8296854023304535,0.4657323956489563,0.5288808941841125,0.4943658709526062,0.5663641691207886,4.618735074996948,2.755492687225342,,,,,,
8526084000.0,93.41,1.899999976158142,6529777152.0,3540.9938724159683,54.0,0.011128170415759087,901120.0,833.1401793956757,0.006306299939751625,0.0758056640625,2.476990222930908,-0.02551642619073391,0.029847458004951477,-0.02476990595459938,-0.0007465260569006205,0.0,0.046042732894420624,0.25466805696487427,0.8232987324893456,0.4722348749637604,0.5466861128807068,0.518277645111084,0.6058354377746582,4.6269495487213135,2.765105724334717,,,,,,
8526084000.0,91.03,1.940000057220459,6529777152.0,3423.0941029283217,55.0,0.012614182196557522,917504.0,837.9264924526215,0.007248864043504,0.08428955078125,2.4871137142181396,-0.02301044389605522,0.026299212127923965,-0.024871136993169785,0.0018606949597597122,0.0,0.0433201864361763,0.2299431711435318,0.8407927839236851,0.48980483412742615,0.4955127239227295,0.5331249833106995,0.5762873291969299,4.786313056945801,2.7564897537231445,,,,,,
8526084000.0,83.46,1.6200000047683716,6529777152.0,3556.272764678987,56.0,0.01232170220464468,933888.0,842.5335631370544,0.006725451443344355,0.0816650390625,2.4970710277557373,-0.023688284680247307,0.03800401836633682,-0.024970708414912224,0.0012824195437133312,0.0,0.030731583014130592,0.2594711184501648,0.8129391823872615,0.5111254453659058,0.5236532092094421,0.5418570041656494,0.5999258756637573,4.607070684432983,2.766079902648926,,,,,,
8526084000.0,93.0,2.0399999618530273,6529777152.0,3446.3196885048915,57.0,0.012173730880022049,950272.0,847.2876200675964,0.012225059792399406,0.125244140625,2.465874671936035,-0.02094009704887867,0.03282831981778145,-0.024658745154738426,0.003718647174537182,0.0,0.022886570543050766,0.25139445066452026,0.8296666419628762,0.5072882771492004,0.5307977199554443,0.5301748514175415,0.6091240644454956,4.754056930541992,2.7710323333740234,,,,,,
8526084000.0,87.98,1.7699999809265137,6529777152.0,3495.1434701200087,58.0,0.011887826956808567,966656.0,851.9752674102783,0.008263768628239632,0.10772705078125,2.472602367401123,-0.022386932745575905,0.032196152955293655,-0.02472602389752865,0.002339092083275318,0.0,0.0125441774725914,0.2545192539691925,0.8358301076041573,0.5533430576324463,0.574163019657135,0.5658872127532959,0.6281651258468628,4.687647342681885,2.8129308223724365,,,,,,
8526084000.0,90.78,1.7599999904632568,6529777152.0,3544.4883475605666,59.0,0.011634358204901218,983040.0,856.5976552963257,0.008790258318185806,0.0966796875,2.4552688598632812,-0.022281883284449577,0.0346175879240036,-0.024552686139941216,0.0022708075121045113,0.0,0.02822066843509674,0.2614688277244568,0.8052154163228427,0.4729487895965576,0.4882035255432129,0.5011695027351379,0.5924376249313354,4.622387886047363,2.770630121231079,,,,,,
8526084000.0,92.83,1.75,6529777152.0,3575.956625688729,60.0,0.011826222762465477,999424.0,861.179366350174,0.007220649626106024,0.0875244140625,2.4665300846099854,-0.02516752853989601,0.03445832431316376,-0.02466530166566372,-0.000502229668200016,0.0,0.05728425085544586,0.26662835478782654,0.8315044273047815,0.4395618736743927,0.5427688360214233,0.49684613943099976,0.6495493054389954,4.581711053848267,2.770984649658203,,,,,,
8526084000.0,87.43,2.4000000953674316,6529777152.0,3575.309363178029,61.0,0.014464806765317917,1015808.0,865.7619068622589,0.0121417585760355,0.1448974609375,2.454540252685547,-0.019620193168520927,0.06538684666156769,-0.024545399472117424,0.004925210028886795,0.0,0.09856279194355011,0.35482531785964966,0.7053967736383234,0.41884562373161316,0.5260576605796814,0.5174084305763245,0.6537260413169861,4.582540512084961,2.769157886505127,,,,,,
8526084000.0,98.07,2.309999942779541,6529777152.0,3476.5041388268924,62.0,0.013550059869885445,1032192.0,870.4746870994568,0.013363911770284176,0.1658935546875,2.502315044403076,-0.017881177365779877,0.030669255182147026,-0.025023145601153374,0.007141969166696072,0.0,0.0739356130361557,0.23957031965255737,0.8610167443252938,0.5300451517105103,0.5582839846611023,0.6039807796478271,0.6426163911819458,4.712780237197876,2.769907236099243,,,,,,
8526284000.0,89.32,2.119999885559082,6529777152.0,3416.8543159469714,63.0,0.015022236853837967,1048576.0,875.269740819931,0.010325640439987183,0.11578369140625,2.4602158069610596,-0.019802510738372803,0.04655569791793823,-0.02460215613245964,0.004799646325409412,0.0,0.07284852862358093,0.30033302307128906,0.8149343705492686,0.5838462114334106,0.5849027633666992,0.656694769859314,0.6981362104415894,4.795053720474243,2.828214406967163,,,,,,
,,,,,,,,,,,,,,,,,,,,,,,,,,0.011185755953192711,0.09482546895742416,0.08978799730539322,0.011185755953192711,0.09482546895742416,0.08978799730539322
,,,,,,,,,,,,,,,,,,,,,,,,,,0.005615867208689451,0.07705417275428772,0.07646502554416656,0.005615867208689451,0.07705417275428772,0.07646502554416656
,,,,,,,,,,,,,,,,,,,,,,,,,,0.004773189313709736,0.07391849905252457,0.07330489903688431,0.004773189313709736,0.07391849905252457,0.07330489903688431
,,,,,,,,,,,,,,,,,,,,,,,,,,0.004291579592972994,0.07171308249235153,0.07131703943014145,0.004291579592972994,0.07171308249235153,0.07131703943014145
,,,,,,,,,,,,,,,,,,,,,,,,,,0.0039003845304250717,0.06995843350887299,0.06963618844747543,0.0039003845304250717,0.06995843350887299,0.06963618844747543
,,,,,,,,,,,,,,,,,,,,,,,,,,0.003993226680904627,0.06961324065923691,0.06941309571266174,0.003993226680904627,0.06961324065923691,0.06941309571266174
8526284000.0,94.43,2.259999990463257,6327188480.0,28.148405026479626,64.0,0.014928335323929787,1064960.0,1457.327586889267,0.004864788148552179,0.05908203125,2.4866888523101807,-0.02306009642779827,0.04011506587266922,-0.02486688829958439,0.0018067937344312668,0.0,0.12440375238656998,0.2982875406742096,0.780019046656344,0.41997745633125305,0.5182713866233826,0.5443812608718872,0.6359788179397583,582.0578460693359,2.8411967754364014,,,,,,
8526284000.0,90.62,2.059999942779541,6529777152.0,3400.06607894685,65.0,0.013345695100724697,1081344.0,1462.146316766739,0.004809746518731117,0.05853271484375,2.462188482284546,-0.02521544322371483,0.04701339080929756,-0.024621881544589996,-0.0005935616791248322,0.0,0.09246866405010223,0.31217309832572937,0.8146779247259882,0.6096572279930115,0.6366748213768005,0.7021259069442749,0.7251567840576172,4.818729877471924,2.7717530727386475,,,,,,
8526284000.0,108.22,2.5399999618530273,6529777152.0,3495.126937904213,66.0,0.013872398063540459,1097728.0,1466.8339862823486,0.00333677651360631,0.041259765625,2.4370973110198975,-0.024990294128656387,0.055731553584337234,-0.02437097392976284,-0.000619320897385478,0.0,0.05543285980820656,0.33982378244400024,0.8222908873745669,0.7720397114753723,0.7150552868843079,0.8274725675582886,0.8061186075210571,4.687669515609741,2.7678537368774414,,,,,,
8526284000.0,105.62,3.0299999713897705,6529777152.0,3605.491046015902,67.0,0.01658991351723671,1114112.0,1471.3781661987305,0.005569483153522015,0.072021484375,2.422332525253296,-0.02495730295777321,0.05306829884648323,-0.02422332763671875,-0.0007339781150221825,0.0,0.07527267932891846,0.3290725648403168,0.8523179367230636,0.865553617477417,0.7751826047897339,0.9408262968063354,0.8563037514686584,4.544179916381836,2.760798215866089,,,,,,
8526284000.0,117.02,3.359999895095825,6529777152.0,3581.478939836637,68.0,0.01684200018644333,1130496.0,1475.9528126716614,0.00442117266356945,0.049560546875,2.4060258865356445,-0.023070793598890305,0.05598274618387222,-0.024060258641839027,0.0009894655086100101,0.0,0.08811922371387482,0.3438079059123993,0.8596433118846964,0.942223310470581,0.8230352997779846,1.0303425788879395,0.9176971912384033,4.574646472930908,2.753849506378174,,,,,,
8526284000.0,114.48,3.6500000953674316,6529777152.0,3519.3352756743147,69.0,0.018343910574913025,1146880.0,1480.6082372665405,0.004723438527435064,0.0555419921875,2.3580167293548584,-0.02165936678647995,0.07690799981355667,-0.023580167442560196,0.001920802053064108,0.0,0.09630787372589111,0.4003612697124481,0.8474711110800107,1.0704209804534912,0.8778517842292786,1.1667288541793823,1.0251230001449585,4.65542459487915,2.770324468612671,,,,,,
8526284000.0,121.25,4.110000133514404,6529777152.0,3489.1036390988315,70.0,0.01864730194211006,1163264.0,1485.3039991855621,0.003923993557691574,0.044189453125,2.3534140586853027,-0.022861681878566742,0.11339063942432404,-0.0235341414809227,0.0006724558770656586,0.0,0.11793820559978485,0.4811887741088867,0.809698296891725,1.0486167669296265,0.93378084897995,1.1665549278259277,1.1030473709106445,4.6957619190216064,2.7760519981384277,,,,,,
8526284000.0,116.15,3.859999895095825,6529777152.0,3456.4208125799387,71.0,0.017741166055202484,1179648.0,1490.0441627502441,0.004309667274355888,0.0478515625,2.3481879234313965,-0.022011451423168182,0.09944246709346771,-0.023481881245970726,0.0014704279601573944,0.0,0.098612479865551,0.48316559195518494,0.8385550034782282,1.0731635093688965,1.0178645849227905,1.1717760562896729,1.2024961709976196,4.740163564682007,2.756103515625,,,,,,
8526284000.0,126.37,3.7899999618530273,6529777152.0,3444.884202032768,72.0,0.017604775726795197,1196032.0,1494.80020070076,0.00384993152692914,0.03948974609375,2.38053035736084,-0.0229762215167284,0.08472651988267899,-0.02380530536174774,0.0008290816913358867,0.0,0.08946532011032104,0.418536514043808,0.8652371706191154,1.1912858486175537,1.0591986179351807,1.2807512283325195,1.1401140689849854,4.756037950515747,2.7686829566955566,,,,,,
8526284000.0,140.46,4.760000228881836,6529777152.0,3564.771342506119,73.0,0.01864844560623169,1212416.0,1499.3962879180908,0.006182481534779072,0.06842041015625,2.3791792392730713,-0.023155856877565384,0.1319991499185562,-0.023791790008544922,0.000635933130979538,0.0,0.07812406122684479,0.5098287463188171,0.875942010983772,1.44063138961792,1.2657570838928223,1.518755555152893,1.447478175163269,4.596087217330933,2.7594809532165527,,,,,,
8526284000.0,134.23,4.659999847412109,6529777152.0,3466.6264411176503,74.0,0.01873522624373436,1228800.0,1504.1224966049194,0.0033811526373028755,0.0311279296875,2.4112117290496826,-0.02304840460419655,0.1868017613887787,-0.024112116545438766,0.0010637114755809307,0.0,0.059784047305583954,0.6375358700752258,0.847174295200213,1.7552118301391602,1.5397440195083618,1.8149960041046143,1.630821704864502,4.726208686828613,2.758321523666382,,,,,,
8526284000.0,134.05,4.46999979019165,6529777152.0,3643.12579477287,75.0,0.017740890383720398,1245184.0,1508.6197335720062,0.003622063435614109,0.0411376953125,2.4176087379455566,-0.023390499874949455,0.16894397139549255,-0.024176087230443954,0.0007855845615267754,0.0,0.06834276020526886,0.5545294284820557,0.8681043879974286,1.6991117000579834,1.3777433633804321,1.7674546241760254,1.5268959999084473,4.497236967086792,2.762172222137451,,,,,,
8526284000.0,175.52,5.409999847412109,6529777152.0,3652.5763635051267,76.0,0.01705308072268963,1261568.0,1513.10533452034,0.005542173981666565,0.05682373046875,2.3940463066101074,-0.021624792367219925,0.15960350632667542,-0.023940464481711388,0.0023156749084591866,0.0,0.12895554304122925,0.5488840937614441,0.8378513788743931,1.4936753511428833,1.2627159357070923,1.6226308345794678,1.3630883693695068,4.48560094833374,2.764700412750244,,,,,,
8526284000.0,159.29,5.599999904632568,6529777152.0,3566.6731476254768,77.0,0.019442174583673477,1277952.0,1517.6989710330963,0.004031212069094181,0.0458984375,2.3986477851867676,-0.022514095529913902,0.1842218041419983,-0.02398647926747799,0.001472383737564087,0.0,0.1489676833152771,0.5840755105018616,0.879846666543114,1.8190381526947021,1.4709612131118774,1.968005895614624,1.685004711151123,4.593636512756348,2.759558916091919,,,,,,
8526284000.0,167.14,6.400000095367432,6529777152.0,3523.265198375389,78.0,0.02016303315758705,1294336.0,1522.3492028713226,0.0042242445051670074,0.04461669921875,2.387052059173584,-0.022852148860692978,0.2092660516500473,-0.023870520293712616,0.0010183700360357761,0.0,0.08262233436107635,0.6325100064277649,0.8644724435718025,1.6905406713485718,1.5750741958618164,1.773163080215454,1.7181206941604614,4.650231838226318,2.7639124393463135,,,,,,
8526284000.0,161.66,4.21999979019165,6529777152.0,3521.8112956910063,79.0,0.015143179334700108,1310720.0,1527.0013544559479,0.0053924499079585075,0.0650634765625,2.4162936210632324,-0.021983634680509567,0.1676061451435089,-0.024162935093045235,0.0021793004125356674,0.0,0.0770447850227356,0.5648524761199951,0.8789173465951945,1.801304578781128,1.477491021156311,1.8783493041992188,1.6232823133468628,4.652151584625244,2.7651095390319824,,,,,,
8526284000.0,185.95,5.760000228881836,6529777152.0,3464.1591012878534,80.0,0.016888095065951347,1327104.0,1531.7309293746948,0.0035621444694697857,0.03887939453125,2.4088995456695557,-0.022393006831407547,0.16676798462867737,-0.024088995531201363,0.0016959905624389648,0.0,0.12685686349868774,0.5663849711418152,0.8641841594041972,1.5981953144073486,1.3993901014328003,1.7250521183013916,1.5368679761886597,4.729574918746948,2.77164888381958,,,,,,
8526284000.0,203.58,7.789999961853027,6529777152.0,3498.6293911136986,81.0,0.02247880958020687,1343488.0,1536.413906097412,0.006436789408326149,0.081298828125,2.395421028137207,-0.02226708084344864,0.22533689439296722,-0.023954208940267563,0.0016871253028512,0.0,0.19582468271255493,0.6083277463912964,0.8828346603365871,1.918914794921875,1.5093775987625122,2.114739418029785,1.7772070169448853,4.682976722717285,2.764726161956787,,,,,,
8526284000.0,212.81,8.59000015258789,6529777152.0,3478.90438665745,82.0,0.022752132266759872,1359872.0,1541.1234347820282,0.004155256319791079,0.04443359375,2.3829801082611084,-0.02257482521235943,0.1800946742296219,-0.023829801008105278,0.0012549730017781258,0.0,0.21971407532691956,0.5917252898216248,0.8901399798883519,1.7813608646392822,1.5729668140411377,2.00107479095459,1.7852553129196167,4.709528684616089,2.7582123279571533,,,,,,
8526284000.0,227.81,9.739999771118164,6529777152.0,3592.681201800746,83.0,0.021318458020687103,1376256.0,1545.6838171482086,0.0049861399456858635,0.0550537109375,2.3666024208068848,-0.02169225364923477,0.24252554774284363,-0.023666027933359146,0.001973770558834076,0.0,0.17755380272865295,0.631798267364502,0.8785125940300398,1.9142746925354004,1.651745319366455,2.0918283462524414,1.8126450777053833,4.56038236618042,2.7589802742004395,,,,,,
8526284000.0,216.49,7.650000095367432,6529777152.0,3537.417599393981,84.0,0.019592754542827606,1392640.0,1550.315444469452,0.005025050137192011,0.0533447265625,2.3581385612487793,-0.02169390395283699,0.22323475778102875,-0.023581383749842644,0.0018874816596508026,0.0,0.1768631786108017,0.6159791946411133,0.8783994476307917,1.8470876216888428,1.5397353172302246,2.0239505767822266,1.7664374113082886,4.631627321243286,2.7606732845306396,,,,,,
8526284000.0,211.86,8.65999984741211,6529777152.0,3630.4842938094275,85.0,0.021874137222766876,1409024.0,1554.8283410072327,0.005056779831647873,0.05780029296875,2.3491642475128174,-0.01942906342446804,0.17310281097888947,-0.023491643369197845,0.004062579944729805,0.0,0.2187412679195404,0.5459364652633667,0.8938794822151448,1.9324767589569092,1.448912501335144,2.1512181758880615,1.6758784055709839,4.512896537780762,2.7606072425842285,,,,,,
8526284000.0,207.24,9.460000038146973,6529777152.0,3516.000648561752,86.0,0.026642929762601852,1425408.0,1559.4881808757782,0.006804445758461952,0.080322265625,2.309375047683716,-0.019971121102571487,0.22561146318912506,-0.023093750700354576,0.0031226230785250664,0.0,0.2521437108516693,0.6720214486122131,0.8718689869574632,1.840012550354004,1.5188490152359009,2.092156171798706,1.8773963451385498,4.659839868545532,2.779461145401001,,,,,,
8526284000.0,199.49,7.980000019073486,6529777152.0,3375.0557677205284,87.0,0.020615946501493454,1441792.0,1564.3426191806793,0.00614464096724987,0.06378173828125,2.3139891624450684,-0.021385617554187775,0.16866432130336761,-0.023139888420701027,0.0017542722634971142,0.0,0.17733502388000488,0.5924252271652222,0.8918967196522625,1.8216750621795654,1.5683534145355225,1.9990099668502808,1.8018308877944946,4.854438304901123,2.7637743949890137,,,,,,
8526284000.0,211.86,8.010000228881836,6529777152.0,3490.301425579574,88.0,0.020078685134649277,1458176.0,1569.0367696285248,0.012843790464103222,0.13671875,2.3321373462677,-0.018208282068371773,0.2951046824455261,-0.023321371525526047,0.005113090854138136,0.0,0.14527735114097595,0.7482885122299194,0.8522362530445571,2.3021349906921387,1.8194801807403564,2.4474122524261475,1.946637749671936,4.694150447845459,2.772435188293457,,,,,,
8526284000.0,247.2,10.350000381469727,6529777152.0,3471.7407515446384,89.0,0.023178398609161377,1474560.0,1573.7560160160065,0.007311047054827213,0.08660888671875,2.322038412094116,-0.020877044647932053,0.3277874290943146,-0.023220382630825043,0.0023433370515704155,0.0,0.19322116672992706,0.7815989851951599,0.8874258614931877,2.7458271980285645,2.099392890930176,2.9390482902526855,2.32951021194458,4.7192463874816895,2.7957494258880615,,,,,,
8526284000.0,271.46,11.979999542236328,6529777152.0,3586.678724095091,90.0,0.020469313487410545,1490944.0,1578.3240303993225,0.0038964510895311832,0.04754638671875,2.332890510559082,-0.020963478833436966,0.3117484450340271,-0.023328904062509537,0.0023654233664274216,0.0,0.18081510066986084,0.7693169116973877,0.8810409353616173,2.7674410343170166,2.0714492797851562,2.948256015777588,2.2305219173431396,4.56801438331604,2.7592828273773193,,,,,,
8526284000.0,249.32,9.960000038146973,6529777152.0,3623.8079422008777,91.0,0.02401764690876007,1507328.0,1582.8452413082123,0.006021082401275635,0.06585693359375,2.316032648086548,-0.02222992107272148,0.29867997765541077,-0.02316032536327839,0.0009304045233875513,0.0,0.15390101075172424,0.768604040145874,0.883261166294963,3.1211583614349365,2.028182029724121,3.275059223175049,2.249546527862549,4.5212109088897705,2.7722084522247314,,,,,,
8526284000.0,242.26,10.90999984741211,6529777152.0,3452.320748158568,92.0,0.023883730173110962,1523712.0,1587.591034412384,0.0043439376167953014,0.04156494140625,2.297849178314209,-0.021800491958856583,0.2904401123523712,-0.022978492081165314,0.001178000122308731,0.0,0.20151188969612122,0.7358717322349548,0.8857068673665005,2.757601737976074,2.019913911819458,2.9591140747070312,2.1766674518585205,4.745793104171753,2.80920672416687,,,,,,
8526284000.0,247.63,10.680000305175781,6529777152.0,3425.6299758065534,93.0,0.022189663723111153,1540096.0,1592.3738043308258,0.006494555156677961,0.0699462890625,2.2861034870147705,-0.020088039338588715,0.2981475591659546,-0.02286103554069996,0.002772996202111244,0.0,0.1877780258655548,0.7623194456100464,0.8803753194513474,2.9098589420318604,2.076209306716919,3.0976369380950928,2.2040765285491943,4.7827699184417725,2.7759644985198975,,,,,,
8526284000.0,260.42,11.890000343322754,6529777152.0,3536.9287477396065,94.0,0.026123076677322388,1556480.0,1597.006071805954,0.004359131678938866,0.04815673828125,2.268078565597534,-0.020418988540768623,0.2860366404056549,-0.02268078364431858,0.0022617941722273827,0.0,0.2067263424396515,0.7447453141212463,0.8988270465444637,3.3555479049682617,2.2104945182800293,3.562274217605591,2.341399908065796,4.632267475128174,2.78552508354187,,,,,,
8526436000.0,294.38,14.720000267028809,6529777152.0,3511.5822407632086,95.0,0.027247782796621323,1572864.0,1601.6717748641968,0.0034267734736204147,0.035888671875,2.247307538986206,-0.020501554012298584,0.25336331129074097,-0.02247307449579239,0.001971520483493805,0.0,0.24872584640979767,0.6979524493217468,0.883934981055605,3.520426034927368,1.8650320768356323,3.7691516876220703,2.048685073852539,4.665703058242798,2.7901649475097656,,,,,,
,,,,,,,,,,,,,,,,,,,,,,,,,,0.052330225706100464,0.6561623811721802,0.5691914558410645,0.052330225706100464,0.6561623811721802,0.5691914558410645
,,,,,,,,,,,,,,,,,,,,,,,,,,0.02575686015188694,0.47959110140800476,0.45756426453590393,0.02575686015188694,0.47959110140800476,0.45756426453590393
,,,,,,,,,,,,,,,,,,,,,,,,,,0.02316342294216156,0.4540116488933563,0.4429258108139038,0.02316342294216156,0.4540116488933563,0.4429258108139038
,,,,,,,,,,,,,,,,,,,,,,,,,,0.01872197538614273,0.41758111119270325,0.4101722836494446,0.01872197538614273,0.41758111119270325,0.4101722836494446
,,,,,,,,,,,,,,,,,,,,,,,,,,0.018750419840216637,0.41201329231262207,0.40876007080078125,0.018750419840216637,0.41201329231262207,0.40876007080078125
,,,,,,,,,,,,,,,,,,,,,,,,,,0.017276659607887268,0.4023877680301666,0.3992648422718048,0.017276659607887268,0.4023877680301666,0.3992648422718048
8526436000.0,323.78,16.739999771118164,6327188480.0,28.178438912044957,96.0,0.02730337157845497,1589248.0,2183.109236717224,0.006278404500335455,0.07440185546875,2.2511160373687744,-0.017677415162324905,0.24987302720546722,-0.022511160001158714,0.004833745304495096,0.0,0.3178262412548065,0.682594895362854,0.9068076092487156,2.669280529022217,2.0069615840911865,2.9871068000793457,2.2360050678253174,581.4374618530273,3.04725980758667,,,,,,
8526436000.0,307.91,15.479999542236328,6529777152.0,3524.216879455531,97.0,0.024603700265288353,1605632.0,2187.7582128047943,0.0064703188836574554,0.0777587890625,2.272104263305664,-0.021757805719971657,0.21928641200065613,-0.02272104099392891,0.0009632408618927002,0.0,0.2690090537071228,0.6673694849014282,0.9059597042379849,2.739231586456299,2.0618746280670166,3.0082406997680664,2.176252841949463,4.64897608757019,2.770758867263794,,,,,,
8526436000.0,291.48,14.210000038146973,6529777152.0,3435.3075588989514,98.0,0.02970985323190689,1622016.0,2192.527509212494,0.005444055888801813,0.06292724609375,2.2451674938201904,-0.021483950316905975,0.29806074500083923,-0.022451674565672874,0.0009677205234766006,0.0,0.24083469808101654,0.7674238681793213,0.9035734911817792,3.347017526626587,2.316071033477783,3.5878522396087646,2.4713664054870605,4.769296407699585,2.7673027515411377,,,,,,
8526436000.0,283.86,13.25,6529777152.0,3553.673272419159,99.0,0.02345486357808113,1638400.0,2197.1379499435425,0.004270108882337809,0.041015625,2.260312080383301,-0.022742431610822678,0.27871081233024597,-0.022603122517466545,-0.0001393090933561325,0.0,0.17400452494621277,0.7019785046577454,0.9019896817020316,3.241926670074463,2.093951463699341,3.415931224822998,2.24226975440979,4.610440731048584,2.7654166221618652,,,,,,
8526436000.0,273.88,12.75,6529777152.0,3556.2383496858406,100.0,0.024484604597091675,1654784.0,2201.7450652122498,0.005924833007156849,0.06634521484375,2.258009910583496,-0.02210594341158867,0.28775548934936523,-0.0225800983607769,0.00047415541484951973,0.0,0.21840018033981323,0.7622069120407104,0.9064487128635316,3.930635929107666,2.3751115798950195,4.149036407470703,2.492000102996826,4.607115268707275,2.7399208545684814,,,,,,
8526436000.0,281.32,14.239999771118164,6529777152.0,3485.4832087647383,101.0,0.02652103640139103,1671168.0,2206.4457046985626,0.00427129166200757,0.0478515625,2.220144033432007,-0.02102867141366005,0.2842271625995636,-0.02220143936574459,0.001172766089439392,0.0,0.14552608132362366,0.761397123336792,0.8989515288794887,4.018143653869629,2.2710671424865723,4.163669586181641,2.3952252864837646,4.700639486312866,2.760938882827759,,,,,,
8526436000.0,281.81,13.930000305175781,6529777152.0,3514.1864489545446,102.0,0.02636932022869587,1687552.0,2211.1079502105713,0.005547836422920227,0.06304931640625,2.2190051078796387,-0.02219429612159729,0.3231229782104492,-0.022190049290657043,-4.24310564994812e-06,0.0,0.22146835923194885,0.8028055429458618,0.8992849791988935,4.122250556945801,2.411510944366455,4.343719005584717,2.5296664237976074,4.662245512008667,2.7619078159332275,,,,,,
8526436000.0,291.27,14.829999923706055,6529777152.0,3607.2261781630555,103.0,0.026863262057304382,1703936.0,2215.64994430542,0.004981371574103832,0.0550537109375,2.2007837295532227,-0.02036946825683117,0.26506009697914124,-0.022007834166288376,0.0016383640468120575,0.0,0.21240121126174927,0.723690390586853,0.9179646979650014,4.361637115478516,2.427201271057129,4.574038505554199,2.526693105697632,4.541994094848633,2.7494256496429443,,,,,,
8526436000.0,295.84,14.760000228881836,6529777152.0,3442.3702771304497,104.0,0.02536822110414505,1720320.0,2220.409455537796,0.003484893823042512,0.0330810546875,2.2117538452148438,-0.019838614389300346,0.2628009021282196,-0.022117536514997482,0.002278923988342285,0.0,0.18853682279586792,0.7331624031066895,0.9125714382429678,4.260830402374268,2.3399412631988525,4.449366569519043,2.479553461074829,4.759511232376099,2.7657852172851562,,,,,,
8526436000.0,297.29,15.34000015258789,6529777152.0,3504.3644885029503,105.0,0.02824767678976059,1736704.0,2225.084768295288,0.0026874151080846786,0.029541015625,2.199601888656616,-0.020738400518894196,0.3077380359172821,-0.021996019408106804,0.0012576235458254814,0.0,0.1738431751728058,0.7839959859848022,0.9008405225194852,4.954244613647461,2.3770833015441895,5.128087997436523,2.489698886871338,4.675312757492065,2.74359393119812,,,,,,
8526436000.0,306.87,16.1299991607666,6529777152.0,3552.919790518833,106.0,0.027582069858908653,1753088.0,2229.6961867809296,0.005368173122406006,0.05328369140625,2.186933994293213,-0.018580229952931404,0.28385287523269653,-0.021869340911507607,0.0032891109585762024,0.0,0.15829071402549744,0.76349937915802,0.9211059225205678,4.969817638397217,2.6079795360565186,5.128108024597168,2.718231678009033,4.6114184856414795,2.7618322372436523,,,,,,
8526436000.0,327.93,16.889999389648438,6529777152.0,3526.4444156387713,107.0,0.025722350925207138,1769472.0,2234.342226266861,0.0043304553255438805,0.04571533203125,2.178694486618042,-0.020120227709412575,0.24744804203510284,-0.021786946803331375,0.0016667190939188004,0.0,0.17354023456573486,0.6932592391967773,0.9311603323339153,5.027013778686523,2.58565616607666,5.200553894042969,2.6422646045684814,4.6460394859313965,2.7617452144622803,,,,,,
8526436000.0,327.33,16.540000915527344,6529777152.0,3569.2004912362527,108.0,0.026225358247756958,1785856.0,2238.9326100349426,0.004098234698176384,0.0430908203125,2.1710269451141357,-0.020489158108830452,0.25935932993888855,-0.021710267290472984,0.0012211073189973831,0.0,0.17853116989135742,0.7151612639427185,0.9225811900169315,5.083427429199219,2.4894919395446777,5.261959075927734,2.5702826976776123,4.590383768081665,2.7568321228027344,,,,,,
8526436000.0,329.14,16.93000030517578,6529777152.0,3603.4733687027356,109.0,0.026433326303958893,1802240.0,2243.4793343544006,0.004643086344003677,0.0462646484375,2.157144069671631,-0.01989293470978737,0.28603214025497437,-0.021571438759565353,0.001678507775068283,0.0,0.20836251974105835,0.7447647452354431,0.9015747695521189,5.280900001525879,2.331768274307251,5.489262580871582,2.373918294906616,4.546724319458008,2.760936737060547,,,,,,
8526436000.0,351.56,19.510000228881836,6529777152.0,3573.966283282359,110.0,0.03207099437713623,1818624.0,2248.0635969638824,0.006972745526582003,0.08111572265625,2.149996042251587,-0.017851507291197777,0.23290418088436127,-0.021499959751963615,0.0036484580487012863,0.0,0.22620895504951477,0.6874792575836182,0.9133793610613491,5.662105560302734,2.286856174468994,5.888314723968506,2.3358709812164307,4.5842626094818115,2.7581968307495117,,,,,,
8526436000.0,346.28,19.850000381469727,6529777152.0,3528.572760319973,111.0,0.03282766044139862,1835008.0,2252.706834077835,0.004590184427797794,0.04266357421875,2.141009569168091,-0.01961466670036316,0.2764444649219513,-0.02141009457409382,0.0017954297363758087,0.0,0.18217965960502625,0.7172020673751831,0.9041969015406531,5.5793375968933105,2.1582226753234863,5.761517524719238,2.3171370029449463,4.643237113952637,2.7524752616882324,,,,,,
8526436000.0,343.32,19.90999984741211,6529777152.0,3449.71733818948,112.0,0.027051221579313278,1851392.0,2257.456208705902,0.004909682087600231,0.05560302734375,2.1495590209960938,-0.019739028066396713,0.2358248233795166,-0.02149558998644352,0.001756562851369381,0.0,0.21153444051742554,0.6341163516044617,0.9294692942237872,5.226078987121582,2.3188328742980957,5.437613487243652,2.3877007961273193,4.749374628067017,2.7623238563537598,,,,,,
8526436000.0,353.3,19.959999084472656,6529777152.0,3464.9239695503875,113.0,0.02848682552576065,1867776.0,2262.184739589691,0.007058585993945599,0.0535888671875,2.141951084136963,-0.018040016293525696,0.3044806718826294,-0.02141951024532318,0.003379494184628129,0.0,0.17745737731456757,0.7654749155044556,0.8986653122582191,5.378503322601318,2.3124756813049316,5.555960655212402,2.4046497344970703,4.7285308837890625,2.754089117050171,,,,,,
8526436000.0,354.96,19.670000076293945,6529777152.0,3554.766490152958,114.0,0.027430105954408646,1884160.0,2266.79376244545,0.004770329222083092,0.04266357421875,2.137282371520996,-0.0188186913728714,0.269939124584198,-0.021372823044657707,0.0025541316717863083,0.0,0.184199258685112,0.7268099784851074,0.9070531282555979,5.527981758117676,2.2864646911621094,5.712181091308594,2.3839848041534424,4.609022855758667,2.7632498741149902,,,,,,
8526436000.0,344.79,19.3799991607666,6529777152.0,3512.742003083794,115.0,0.030899610370397568,1900544.0,2271.457925081253,0.00473967008292675,0.0526123046875,2.1469314098358154,-0.018770378082990646,0.23110492527484894,-0.02146931365132332,0.0026989392936229706,0.0,0.1511031985282898,0.6706050038337708,0.9217806879310474,5.239081859588623,2.3235154151916504,5.390185356140137,2.3977837562561035,4.664162635803223,2.7732362747192383,,,,,,
8526436000.0,345.12,18.809999465942383,6529777152.0,3524.4449834410857,116.0,0.027381794527173042,1916928.0,2276.1066002845764,0.005504236556589603,0.0650634765625,2.1434435844421387,-0.019999448210000992,0.2590135335922241,-0.02143443562090397,0.0014349892735481262,0.0,0.18546979129314423,0.738066554069519,0.9076813729982,5.129749298095703,2.30147647857666,5.315218925476074,2.429130792617798,4.648675203323364,2.759782075881958,,,,,,
8526436000.0,352.45,18.90999984741211,6529777152.0,3645.6160833583467,117.0,0.026775937527418137,1933312.0,2280.6007652282715,0.006540901027619839,0.06854248046875,2.1354598999023438,-0.01843082904815674,0.26618993282318115,-0.02135460078716278,0.002923768013715744,0.0,0.1906501054763794,0.679297924041748,0.9013909646304641,5.4572343826293945,2.0927436351776123,5.647883892059326,2.1632256507873535,4.494164943695068,2.7545554637908936,,,,,,
8526436000.0,359.8,19.25,6529777152.0,3547.28497897655,118.0,0.028362073004245758,1949696.0,2285.2195088863373,0.004793660715222359,0.05023193359375,2.0943655967712402,-0.018217111006379128,0.24488812685012817,-0.02094365656375885,0.0027265455573797226,0.0,0.17330504953861237,0.6548545360565186,0.9128789554221276,5.669462203979492,2.1222143173217773,5.842766761779785,2.2186214923858643,4.618743658065796,2.786524772644043,,,,,,
8526436000.0,370.75,20.15999984741211,6529777152.0,3557.8026040289833,119.0,0.026624444872140884,1966080.0,2289.8245985507965,0.004489129409193993,0.05035400390625,2.105475425720215,-0.01746596209704876,0.20649372041225433,-0.02105475217103958,0.0035887868143618107,0.0,0.20864103734493256,0.6026565432548523,0.9271831587755766,5.538022041320801,2.1494321823120117,5.7466630935668945,2.233335256576538,4.6050896644592285,2.7557709217071533,,,,,,
8526436000.0,370.84,20.6200008392334,6529777152.0,3456.1843934684657,120.0,0.032837629318237305,1982464.0,2294.565086364746,0.008610682561993599,0.09033203125,2.1331965923309326,-0.016772445291280746,0.20191706717014313,-0.021331965923309326,0.004559522494673729,0.0,0.20254798233509064,0.6064972877502441,0.9272310369131166,5.730929374694824,2.1594085693359375,5.933477401733398,2.2483084201812744,4.740487813949585,2.817326545715332,,,,,,
8526436000.0,376.51,22.190000534057617,6529777152.0,3437.0470547428436,121.0,0.031684838235378265,1998848.0,2299.331969022751,0.005714463535696268,0.0616455078125,2.124044179916382,-0.018546056002378464,0.22075490653514862,-0.021240442991256714,0.002694383729249239,0.0,0.21413850784301758,0.6332442164421082,0.9084428080528959,6.045476913452148,2.002485990524292,6.259615421295166,2.092787027359009,4.766882658004761,2.775125741958618,,,,,,
8526436000.0,360.6,21.34000015258789,6529777152.0,3390.209734613427,122.0,0.029438883066177368,2015232.0,2304.164708375931,0.004523826763033867,0.046630859375,2.1233291625976562,-0.020823875442147255,0.21021486818790436,-0.021233288571238518,0.0004094168543815613,0.0,0.13887447118759155,0.6235510110855103,0.9256373379728549,6.151986122131348,2.200413465499878,6.290860176086426,2.2866222858428955,4.832739353179932,2.7646780014038086,,,,,,
8526436000.0,353.38,20.079999923706055,6529777152.0,3551.210437950988,123.0,0.028075801208615303,2031616.0,2308.7783465385437,0.004042465705424547,0.04254150390625,2.0970749855041504,-0.019335642457008362,0.22903677821159363,-0.020970748737454414,0.0016351081430912018,0.0,0.16279888153076172,0.6491590142250061,0.9189282254352368,5.6747212409973145,2.135935068130493,5.837519645690918,2.2799015045166016,4.613638162612915,2.7755863666534424,,,,,,
8526436000.0,355.32,19.520000457763672,6529777152.0,3589.47410753461,124.0,0.0299554243683815,2048000.0,2313.342803478241,0.0049456339329481125,0.04937744140625,2.0972118377685547,-0.019909091293811798,0.2418951392173767,-0.0209721177816391,0.001063026487827301,0.0,0.15881700813770294,0.6757315993309021,0.9121069241764826,6.252433776855469,2.2179648876190186,6.411250591278076,2.2792773246765137,4.564456939697266,2.768362283706665,,,,,,
8526436000.0,350.74,19.520000457763672,6529777152.0,3446.5049774089707,125.0,0.02892894484102726,2064384.0,2318.096604824066,0.0037230970337986946,0.0355224609375,2.1127090454101562,-0.019096657633781433,0.243606299161911,-0.021127086132764816,0.002030429430305958,0.0,0.11149270832538605,0.6875780820846558,0.9129527329429794,6.18065071105957,2.272725820541382,6.29214334487915,2.3304755687713623,4.753801345825195,2.7669081687927246,,,,,,
8526436000.0,348.65,19.049999237060547,6529777152.0,3551.8679125107074,126.0,0.024767786264419556,2080768.0,2322.7093889713287,0.004910327959805727,0.0482177734375,2.1238112449645996,-0.01868205890059471,0.20471550524234772,-0.021238112822175026,0.0025560546200722456,0.0,0.1478998064994812,0.6063947081565857,0.9158458464660316,5.826161861419678,1.993219256401062,5.974061965942383,2.0903444290161133,4.612784147262573,2.7808761596679688,,,,,,
8526472000.0,359.14,20.280000686645508,6529777152.0,3560.8874541134546,127.0,0.03293620049953461,2097152.0,2327.310489177704,0.0037547785323113203,0.03936767578125,2.1028902530670166,-0.020182978361845016,0.16898943483829498,-0.021028902381658554,0.000845923088490963,0.0,0.1686009168624878,0.5840356349945068,0.937583167572318,6.138127326965332,2.2448973655700684,6.306728363037109,2.337698459625244,4.601100206375122,2.7665300369262695,,,,,,
,,,,,,,,,,,,,,,,,,,,,,,,,,0.04640766233205795,1.0788034200668335,0.8848744630813599,0.04640766233205795,1.0788034200668335,0.8848744630813599
,,,,,,,,,,,,,,,,,,,,,,,,,,0.026439785957336426,0.80097496509552,0.7671675682067871,0.026439785957336426,0.80097496509552,0.7671675682067871
,,,,,,,,,,,,,,,,,,,,,,,,,,0.02469336986541748,0.7617957592010498,0.748196005821228,0.02469336986541748,0.7617957592010498,0.748196005821228
,,,,,,,,,,,,,,,,,,,,,,,,,,0.02205674536526203,0.7324429154396057,0.7217627167701721,0.02205674536526203,0.7324429154396057,0.7217627167701721
,,,,,,,,,,,,,,,,,,,,,,,,,,0.020086489617824554,0.6942581534385681,0.6887126564979553,0.020086489617824554,0.6942581534385681,0.6887126564979553
,,,,,,,,,,,,,,,,,,,,,,,,,,0.019175533205270767,0.6795865893363953,0.676320493221283,0.019175533205270767,0.6795865893363953,0.676320493221283
8526472000.0,356.09,21.149999618530273,6327188480.0,28.1061182238248,128.0,0.031497880816459656,2113536.0,2910.2440650463104,0.004532676190137863,0.044921875,2.1243081092834473,-0.01990974321961403,0.22257456183433533,-0.021243082359433174,0.0013333382084965706,0.0,0.19521860778331757,0.6562830805778503,0.9207746186128939,5.602272987365723,2.2310256958007812,5.797492027282715,2.3316264152526855,582.9335758686066,2.8092029094696045,,,,,,
8526472000.0,365.96,21.549999237060547,6529777152.0,3455.178061986326,129.0,0.028333229944109917,2129920.0,2914.9859335422516,0.005414824932813644,0.05731201171875,2.1060426235198975,-0.018939606845378876,0.19299644231796265,-0.02106042578816414,0.0021208226680755615,0.0,0.22153687477111816,0.6160051822662354,0.9275404821719535,5.949898719787598,2.280576705932617,6.171435832977295,2.2884249687194824,4.741868495941162,2.7669355869293213,,,,,,
8526472000.0,386.04,23.110000610351562,6529777152.0,3508.268551425804,130.0,0.03306641802191734,2146304.0,2919.6560435295105,0.004852553363889456,0.0535888671875,2.0912058353424072,-0.020263176411390305,0.1681596338748932,-0.020912054926156998,0.0006488803774118423,0.0,0.21712106466293335,0.5842214226722717,0.9399354788062191,6.140557289123535,2.344343423843384,6.357678413391113,2.383794069290161,4.670109987258911,2.7603635787963867,,,,,,
8526472000.0,392.81,23.360000610351562,6529777152.0,3575.402559002526,131.0,0.029199594631791115,2162688.0,2924.2384645938873,0.005901196971535683,0.06964111328125,2.0889053344726562,-0.018376803025603294,0.18166399002075195,-0.020889054983854294,0.0025122533552348614,0.0,0.1819850504398346,0.6057860255241394,0.9378719085257194,6.4194512367248535,2.3597488403320312,6.601436138153076,2.4303860664367676,4.582421064376831,2.7617850303649902,,,,,,
8526472000.0,377.96,22.690000534057617,6529777152.0,3527.7402380647304,132.0,0.03254161402583122,2179072.0,2928.8827974796295,0.00545408483594656,0.06512451171875,2.0807461738586426,-0.02036173641681671,0.1707911193370819,-0.02080746367573738,0.0004457244649529457,0.0,0.17447729408740997,0.5807991027832031,0.9421964507645287,6.687705039978027,2.3811240196228027,6.862182140350342,2.415731191635132,4.6443328857421875,2.7534046173095703,,,,,,
8526472000.0,383.82,23.170000076293945,6529777152.0,3505.442773695573,133.0,0.03131500631570816,2195456.0,2933.5566720962524,0.003410509554669261,0.028076171875,2.073145866394043,-0.020827490836381912,0.17385126650333405,-0.020731456577777863,-9.603798389434814e-05,0.0,0.21014513075351715,0.5853069424629211,0.9327515625341851,6.987975120544434,2.2542243003845215,7.1981201171875,2.257056713104248,4.673874616622925,2.761401891708374,,,,,,
8526472000.0,385.3,23.1200008392334,6529777152.0,3502.341813223867,134.0,0.030024392530322075,2211840.0,2938.234684944153,0.003772301832213998,0.0396728515625,2.0861496925354004,-0.01918913796544075,0.20671579241752625,-0.020861495286226273,0.001672359649091959,0.0,0.12390228360891342,0.6494977474212646,0.911821417757838,6.788658618927002,2.1519124507904053,6.91256046295166,2.18723726272583,4.678012847900391,2.757085084915161,,,,,,
8526472000.0,375.48,22.68000030517578,6529777152.0,3498.459827784051,135.0,0.038429513573646545,2228224.0,2942.9178886413574,0.006857814732939005,0.085693359375,2.0686581134796143,-0.018832482397556305,0.21806062757968903,-0.02068658173084259,0.001854095607995987,0.0,0.12299162149429321,0.6554325222969055,0.9130430776982786,7.610468864440918,2.1416425704956055,7.733460426330566,2.2226741313934326,4.68320369720459,2.7516331672668457,,,,,,
8526472000.0,358.72,21.489999771118164,6529777152.0,3576.9328928550535,136.0,0.023756522685289383,2244608.0,2947.4983491897583,0.004671485163271427,0.0438232421875,2.0649235248565674,-0.019119111821055412,0.20975591242313385,-0.02064923383295536,0.001530125504359603,0.0,0.16395384073257446,0.6370406746864319,0.929951528465061,7.393069744110107,2.362252712249756,7.557024002075195,2.406954765319824,4.580460548400879,2.7471635341644287,,,,,,
8526472000.0,360.93,22.270000457763672,6529777152.0,3511.7676148783976,137.0,0.03687223047018051,2260992.0,2952.163805961609,0.006685749627649784,0.0728759765625,2.041191816329956,-0.01752428710460663,0.21524961292743683,-0.020411917939782143,0.002887628972530365,0.0,0.10698610544204712,0.6468652486801147,0.9214040128160665,7.348939418792725,2.2941012382507324,7.455925941467285,2.3073513507843018,4.665456771850586,2.7474112510681152,,,,,,
8526472000.0,384.44,24.139999389648438,6529777152.0,3434.1930360011816,138.0,0.03158850595355034,2277376.0,2956.934650182724,0.0036780214868485928,0.04290771484375,2.0439109802246094,-0.018123464658856392,0.17604534327983856,-0.020439108833670616,0.0023156441748142242,0.0,0.14378246665000916,0.5914502143859863,0.9145791578915783,7.893670558929443,2.007762908935547,8.037452697753906,2.0236523151397705,4.770844221115112,2.7527074813842773,,,,,,
8526472000.0,383.7,23.979999542236328,6529777152.0,3592.968787623655,139.0,0.030023742467164993,2293760.0,2961.49466753006,0.0044865296222269535,0.0474853515625,2.0675628185272217,-0.01889880932867527,0.17994244396686554,-0.020675629377365112,0.0017768214456737041,0.0,0.15956655144691467,0.594650149345398,0.927101403575442,7.339909553527832,2.166383743286133,7.499476432800293,2.2024285793304443,4.560017347335815,2.7495954036712646,,,,,,
8526472000.0,388.22,24.010000228881836,6529777152.0,3545.1843028031417,140.0,0.037625402212142944,2310144.0,2966.116147994995,0.0038406862877309322,0.04083251953125,2.0422332286834717,-0.018679320812225342,0.20576493442058563,-0.02042233571410179,0.0017430176958441734,0.0,0.11815501004457474,0.6310914754867554,0.926750117243759,8.005090713500977,2.2944130897521973,8.123246192932129,2.331789016723633,4.621480464935303,2.7574117183685303,,,,,,
8526472000.0,386.63,24.149999618530273,6529777152.0,3507.933300367085,141.0,0.02476690337061882,2326528.0,2970.786704301834,0.003106974996626377,0.031982421875,2.081331729888916,-0.01755896769464016,0.1727796345949173,-0.020813317969441414,0.0032543502748012543,0.0,0.13149963319301605,0.5900145769119263,0.8924467425387291,7.838399887084961,1.8473223447799683,7.9698991775512695,1.7990797758102417,4.670556306838989,2.745645761489868,,,,,,
8526472000.0,397.89,25.020000457763672,6529777152.0,3441.590340155617,142.0,0.0372898168861866,2342912.0,2975.547294139862,0.00493543641641736,0.05096435546875,2.0933587551116943,-0.019877590239048004,0.1583031862974167,-0.020933588966727257,0.0010559973306953907,0.0,0.10235536098480225,0.5621412396430969,0.9184273156221299,7.633838176727295,1.9111390113830566,7.736193656921387,1.968217372894287,4.760589838027954,2.7546403408050537,,,,,,
8526472000.0,404.62,25.489999771118164,6529777152.0,3580.883975245023,143.0,0.03371735289692879,2359296.0,2980.122700691223,0.004893138073384762,0.04730224609375,2.0919132232666016,-0.01772475242614746,0.13215729594230652,-0.020919129252433777,0.003194381482899189,0.0,0.15665754675865173,0.4882633090019226,0.9217958241682053,7.915140151977539,1.7769975662231445,8.071797370910645,1.7459793090820312,4.575406551361084,2.7528841495513916,,,,,,
8526472000.0,392.85,24.489999771118164,6529777152.0,3501.3310833339447,144.0,0.030635535717010498,2375680.0,2984.8020639419556,0.007830391637980938,0.07293701171875,2.078347682952881,-0.016982775181531906,0.1959352195262909,-0.020783476531505585,0.003800700418651104,0.0,0.10737501084804535,0.6192159652709961,0.8958114655063174,8.085424423217773,1.823862910270691,8.19279956817627,1.9183701276779175,4.679363250732422,2.7517809867858887,,,,,,
8526472000.0,400.01,25.079999923706055,6529777152.0,3463.1599890298835,145.0,0.033545129001140594,2392064.0,2989.5330033302307,0.004154720809310675,0.03997802734375,2.060708522796631,-0.019323397427797318,0.14464537799358368,-0.020607084035873413,0.001283685676753521,0.0,0.08701815456151962,0.5238000154495239,0.9229950287475422,8.179191589355469,1.8755199909210205,8.266210556030273,1.8875863552093506,4.7309393882751465,2.75014328956604,,,,,,
8526472000.0,384.0,23.549999237060547,6529777152.0,3491.6165879065375,146.0,0.02703273855149746,2408448.0,2994.2253856658936,0.006086858455091715,0.05279541015625,2.064502716064453,-0.017000343650579453,0.21821753680706024,-0.020645026117563248,0.0036446857266128063,0.0,0.08717320114374161,0.6349278092384338,0.8768734305502635,8.08243465423584,1.7426795959472656,8.169607162475586,1.8094542026519775,4.692382335662842,2.7457308769226074,,,,,,
8526472000.0,384.29,23.420000076293945,6529777152.0,3450.5281645982755,147.0,0.03602767735719681,2424832.0,2998.973644256592,0.007436257321387529,0.08282470703125,2.0794613361358643,-0.01856357604265213,0.20821668207645416,-0.020794613286852837,0.002231038175523281,0.0,0.05944966524839401,0.6366548538208008,0.8579756045374206,8.418255805969238,1.628180980682373,8.477705001831055,1.6893573999404907,4.748258590698242,2.743710517883301,,,,,,
8526472000.0,392.82,24.1299991607666,6529777152.0,3552.7351893448567,148.0,0.033270034939050674,2441216.0,3003.5853023529053,0.009311536327004433,0.0927734375,2.084954023361206,-0.016916433349251747,0.2633914053440094,-0.02084953896701336,0.003933103755116463,0.0,0.0700739324092865,0.7166921496391296,0.8452065643686433,8.361166954040527,1.7333171367645264,8.43124008178711,1.8216111660003662,4.611658096313477,2.7551686763763428,,,,,,
8526472000.0,399.71,24.75,6529777152.0,3524.4449834410857,149.0,0.027771949768066406,2457600.0,3008.2339775562286,0.004868808202445507,0.0517578125,2.095194101333618,-0.019470565021038055,0.15216821432113647,-0.02095193974673748,0.0014813761226832867,0.0,0.08705152571201324,0.538462221622467,0.8954271145206628,8.091452598571777,1.603708028793335,8.17850399017334,1.665118932723999,4.648675203323364,2.752040386199951,,,,,,
8526472000.0,392.81,24.31999969482422,6529777152.0,3522.213292038246,150.0,0.03402361646294594,2473984.0,3012.885598182678,0.0041300891898572445,0.040283203125,2.093273878097534,-0.019840184599161148,0.19138337671756744,-0.020932737737894058,0.0010925531387329102,0.0,0.07280946522951126,0.6072009801864624,0.8797088762775003,8.15355110168457,1.6782718896865845,8.226361274719238,1.7507176399230957,4.651620626449585,2.7574968338012695,,,,,,
8526472000.0,381.18,22.899999618530273,6529777152.0,3461.6311003527044,151.0,0.027131356298923492,2490368.0,3017.6186270713806,0.007117328234016895,0.08203125,2.111177682876587,-0.016923800110816956,0.18998971581459045,-0.021111775189638138,0.004187978804111481,0.0,0.04455718398094177,0.5966787934303284,0.9121815912134695,8.025151252746582,1.8953685760498047,8.069707870483398,2.013479709625244,4.733028888702393,2.749654531478882,,,,,,
8526472000.0,355.69,21.18000030517578,6529777152.0,3500.0561905907157,152.0,0.03477783873677254,2506752.0,3022.299694776535,0.005332730710506439,0.04595947265625,2.113690137863159,-0.02137441188097,0.2613939046859741,-0.021136900410056114,-0.00023751205299049616,0.0,0.019147463142871857,0.7061666250228882,0.8899700390587651,8.019767761230469,2.0073482990264893,8.038915634155273,2.128883123397827,4.681067705154419,2.7637345790863037,,,,,,
8526472000.0,365.14,22.010000228881836,6529777152.0,3480.6592362062634,153.0,0.030187178403139114,2523136.0,3027.006849050522,0.004122704733163118,0.04058837890625,2.08612060546875,-0.01960447058081627,0.1759202480316162,-0.020861204713582993,0.0012567359954118729,0.0,0.05805698782205582,0.5698856711387634,0.902336757747501,8.414657592773438,1.8125308752059937,8.472715377807617,1.8235721588134766,4.707154273986816,2.778844118118286,,,,,,
8526472000.0,382.51,22.940000534057617,6529777152.0,3622.4549180155036,154.0,0.029320521280169487,2539520.0,3031.5297486782074,0.009642823599278927,0.0601806640625,2.075115442276001,-0.01736960932612419,0.20911787450313568,-0.02075115591287613,0.0033815479837358,0.0,0.06076030433177948,0.5812667608261108,0.8868425687684982,8.616682052612305,1.669563889503479,8.67744255065918,1.7279622554779053,4.522899627685547,2.7689037322998047,,,,,,
8526472000.0,400.38,24.299999237060547,6529777152.0,3595.9749439432844,155.0,0.033904336392879486,2555904.0,3036.085953950882,0.006215308792889118,0.063720703125,2.058504343032837,-0.017607776448130608,0.16577649116516113,-0.020585041493177414,0.0029772641137242317,0.0,0.03534562885761261,0.5510315895080566,0.9002545914864991,8.795351028442383,1.71453857421875,8.830696105957031,1.7447326183319092,4.5562052726745605,2.7563977241516113,,,,,,
8526472000.0,399.43,24.520000457763672,6529777152.0,3563.6022929403994,156.0,0.030600324273109436,2572288.0,3040.683548927307,0.006732341833412647,0.0625,2.047088146209717,-0.016327742487192154,0.13697965443134308,-0.020470881834626198,0.004143139347434044,0.0,0.0747876688838005,0.5250758528709412,0.9066566180739113,8.87769889831543,1.7085505723953247,8.952486038208008,1.7186189889907837,4.597594976425171,2.7796292304992676,,,,,,
8526472000.0,394.06,25.06999969482422,6529777152.0,3499.8159035962462,157.0,0.038088131695985794,2588672.0,3045.364938020706,0.004023307003080845,0.0469970703125,2.0734200477600098,-0.01904839277267456,0.15271997451782227,-0.02073420211672783,0.0016858084127306938,0.0,0.05295003950595856,0.5367470383644104,0.9103271185495485,8.651957511901855,1.7477126121520996,8.704907417297363,1.7924152612686157,4.681389093399048,2.7978272438049316,,,,,,
8526472000.0,390.03,23.940000534057617,6529777152.0,3506.6181663798893,158.0,0.027332326397299767,2605056.0,3050.037245988846,0.003960785921663046,0.037841796875,2.086024284362793,-0.019889911636710167,0.20949788391590118,-0.02086023986339569,0.0009703310206532478,0.0,0.0007505891844630241,0.6327258944511414,0.9014596939340578,9.041463851928711,1.9100507497787476,9.042215347290039,2.0156219005584717,4.672307968139648,2.7681965827941895,,,,,,
8526472000.0,398.71,24.90999984741211,6529777152.0,3508.5171656990005,159.0,0.03422926366329193,2621440.0,3054.707025051117,0.0037633059546351433,0.033447265625,2.063098669052124,-0.020437609404325485,0.11804342269897461,-0.020630989223718643,0.00019338075071573257,0.0,0.07457926124334335,0.47631755471229553,0.9248426256201739,9.322296142578125,1.738033413887024,9.396875381469727,1.7374416589736938,4.669779062271118,2.783997058868408,,,,,,
,,,,,,,,,,,,,,,,,,,,,,,,,,0.027311282232403755,0.8986338973045349,0.754045307636261,0.027311282232403755,0.8986338973045349,0.754045307636261
,,,,,,,,,,,,,,,,,,,,,,,,,,0.019130278378725052,0.7529733777046204,0.7252150774002075,0.019130278378725052,0.7529733777046204,0.7252150774002075
,,,,,,,,,,,,,,,,,,,,,,,,,,0.015785280615091324,0.6984942555427551,0.67373126745224,0.015785280615091324,0.6984942555427551,0.67373126745224
,,,,,,,,,,,,,,,,,,,,,,,,,,0.015660593286156654,0.7061182260513306,0.6793757081031799,0.015660593286156654,0.7061182260513306,0.6793757081031799
,,,,,,,,,,,,,,,,,,,,,,,,,,0.0158498827368021,0.682346522808075,0.6622141003608704,0.0158498827368021,0.682346522808075,0.6622141003608704
,,,,,,,,,,,,,,,,,,,,,,,,,,0.014078853651881218,0.6696736216545105,0.6597706079483032,0.014078853651881218,0.6696736216545105,0.6597706079483032
8526472000.0,411.97,26.639999389648438,6327188480.0,28.14904406586948,160.0,0.03516228124499321,2637824.0,3636.7516572475433,0.004735300317406654,0.04217529296875,2.069422721862793,-0.01991613395512104,0.12847459316253662,-0.020694222301244736,0.0007780897431075573,0.0,0.1143309623003006,0.5068146586418152,0.935068701885988,8.02949333190918,1.9732258319854736,8.143823623657227,1.9889378547668457,582.0446321964264,2.7913100719451904,,,,,,
8526472000.0,403.93,25.850000381469727,6529777152.0,3567.760672459476,161.0,0.029331602156162262,2654208.0,3641.3438935279846,0.004383883439004421,0.0439453125,2.1036388874053955,-0.019614076241850853,0.14845052361488342,-0.021036388352513313,0.0014223111793398857,0.0,0.10786145180463791,0.5515116453170776,0.9211520526331216,8.019721984863281,1.9769245386123657,8.127582550048828,1.9640746116638184,4.592236280441284,2.7825560569763184,,,,,,
8526472000.0,397.93,25.219999313354492,6529777152.0,3518.123065823908,162.0,0.03558164834976196,2670592.0,3646.000922203064,0.0055313208140432835,0.05755615234375,2.1076815128326416,-0.020261015743017197,0.12766891717910767,-0.021076813340187073,0.0008158013224601746,0.0,0.10383378714323044,0.5033907294273376,0.9267742295130909,7.970290184020996,1.8136868476867676,8.07412338256836,1.8602540493011475,4.657028675079346,2.7688376903533936,,,,,,
8526472000.0,401.22,25.760000228881836,6529777152.0,3599.244757054105,163.0,0.03357808291912079,2686976.0,3650.5529882907867,0.004799883812665939,0.049072265625,2.1020560264587402,-0.019046630710363388,0.08968720585107803,-0.02102055773139,0.0019739288836717606,0.0,0.1183164194226265,0.4301088750362396,0.934080079168738,8.654523849487305,1.7047812938690186,8.77284049987793,1.6752135753631592,4.552066087722778,2.768160343170166,,,,,,
8526472000.0,408.2,26.15999984741211,6529777152.0,3449.7337899680456,164.0,0.029686467722058296,2703360.0,3655.3023402690887,0.003895609173923731,0.041259765625,2.1017799377441406,-0.02024006098508835,0.14430472254753113,-0.021017801016569138,0.0007777423597872257,0.0,0.1319023221731186,0.5388440489768982,0.8613531629155664,8.780360221862793,1.466202735900879,8.912261962890625,1.4471303224563599,4.749351978302002,2.8255226612091064,,,,,,
8526472000.0,418.92,28.239999771118164,6529777152.0,3571.942135968011,165.0,0.03988976031541824,2719744.0,3659.8892006874084,0.004847411997616291,0.0595703125,2.0910563468933105,-0.02003920078277588,0.07722984254360199,-0.020910561084747314,0.0008713658899068832,0.0,0.10489846020936966,0.3932504653930664,0.9316146930208762,9.061943054199219,1.5225242376327515,9.166841506958008,1.5037946701049805,4.586860418319702,2.7701876163482666,,,,,,
8526472000.0,417.24,28.149999618530273,6529777152.0,3601.533448186369,166.0,0.03318551927804947,2736128.0,3664.438374042511,0.004074647091329098,0.0433349609375,2.105513334274292,-0.020784955471754074,0.1100773736834526,-0.021055132150650024,0.0002701748162508011,0.0,0.10423842072486877,0.4609215259552002,0.9169140250000726,9.097620010375977,1.5855014324188232,9.201858520507812,1.59904944896698,4.549173355102539,2.774101495742798,,,,,,
8526472000.0,411.34,27.8700008392334,6529777152.0,3612.1186207341707,167.0,0.037334926426410675,2752512.0,3668.974216222763,0.004579430446028709,0.049072265625,2.120884418487549,-0.01938500814139843,0.16784952580928802,-0.02120884694159031,0.0018238388001918793,0.0,0.04241516441106796,0.5710500478744507,0.8726819506630391,9.214540481567383,1.5517691373825073,9.25695514678955,1.6004022359848022,4.535842180252075,2.760335683822632,,,,,,
8526472000.0,398.85,25.780000686645508,6529777152.0,3602.0894131154687,168.0,0.030846847221255302,2768896.0,3673.52268743515,0.005580552853643894,0.0511474609375,2.105099678039551,-0.02052801288664341,0.21593232452869415,-0.02105099707841873,0.0005229786038398743,0.0,0.010107263922691345,0.6418866515159607,0.8650171492739953,9.192172050476074,1.6145095825195312,9.202279090881348,1.7471030950546265,4.548471212387085,2.748467445373535,,,,,,
8526472000.0,395.53,25.239999771118164,6529777152.0,3611.859663887409,169.0,0.03085879608988762,2785280.0,3678.058854818344,0.00364410737529397,0.038818359375,2.0898706912994385,-0.01997651532292366,0.20679257810115814,-0.02089870534837246,0.0009221839718520641,0.0,0.032895881682634354,0.6358553171157837,0.8819303812216788,9.332721710205078,1.7084150314331055,9.365617752075195,1.8504987955093384,4.53616738319397,2.758598804473877,,,,,,
8526472000.0,398.34,25.559999465942383,6529777152.0,3585.9538462517885,170.0,0.03717869520187378,2801664.0,3682.627792596817,0.005298880860209465,0.04693603515625,2.0630877017974854,-0.019602403044700623,0.1636471003293991,-0.02063087746500969,0.0010284734889864922,0.0,0.05822041630744934,0.5770285725593567,0.9099864576617394,9.21634578704834,1.9691829681396484,9.274564743041992,1.923277735710144,4.5689377784729,2.757596492767334,,,,,,
8526472000.0,400.75,26.700000762939453,6529777152.0,3555.139996395168,171.0,0.02934785559773445,2818048.0,3687.2363312244415,0.006432301830500364,0.0667724609375,2.054563045501709,-0.018372975289821625,0.1434125155210495,-0.020545631647109985,0.002172655425965786,0.0,0.030276957899332047,0.5380652546882629,0.8901816893212933,9.065753936767578,1.563373327255249,9.096031188964844,1.6236717700958252,4.608538627624512,2.7641172409057617,,,,,,
8526472000.0,395.87,24.8700008392334,6529777152.0,3558.351965942294,172.0,0.03261541947722435,2834432.0,3691.840709924698,0.006971760652959347,0.07708740234375,2.053800106048584,-0.018733344972133636,0.18819402158260345,-0.020537998527288437,0.0018046535551548004,0.0,0.02177540771663189,0.6201901435852051,0.8626468170989392,8.776649475097656,1.5619642734527588,8.79842472076416,1.6734238862991333,4.604378700256348,2.760120391845703,,,,,,
8526472000.0,407.89,25.200000762939453,6529777152.0,3579.462497109765,173.0,0.033400990068912506,2850816.0,3696.4179334640503,0.003569759428501129,0.03265380859375,2.0758273601531982,-0.01933826133608818,0.1327669620513916,-0.02075827307999134,0.0014200098812580109,0.0,0.08716346323490143,0.5192376375198364,0.9194389694826679,8.819182395935059,1.841526985168457,8.90634536743164,1.8293746709823608,4.577223539352417,2.7597994804382324,,,,,,
8526472000.0,407.29,26.049999237060547,6529777152.0,3585.4887162683917,174.0,0.03199359402060509,2867200.0,3700.987463951111,0.005138868931680918,0.0545654296875,2.0767860412597656,-0.019446097314357758,0.15740084648132324,-0.020767860114574432,0.0013217618688941002,0.0,0.07406067848205566,0.5668178796768188,0.8751044435484451,9.102788925170898,1.5769251585006714,9.176847457885742,1.603865623474121,4.569530487060547,2.770475387573242,,,,,,
8526472000.0,406.85,26.479999542236328,6529777152.0,3621.813048302768,175.0,0.037943337112665176,2883584.0,3705.5111651420593,0.0034374590031802654,0.033203125,2.0656723976135254,-0.019175559282302856,0.15477579832077026,-0.020656723529100418,0.0014811661094427109,0.0,0.02131408452987671,0.5560076236724854,0.8663127060058169,9.077882766723633,1.4769731760025024,9.099197387695312,1.5206760168075562,4.523701190948486,2.770308017730713,,,,,,
8526472000.0,400.16,25.459999084472656,6529777152.0,3620.9683875249734,176.0,0.025967173278331757,2899968.0,3710.035921573639,0.0038856060709804296,0.03790283203125,2.078674793243408,-0.01808689907193184,0.19296446442604065,-0.020786747336387634,0.002699847798794508,0.0,0.041308313608169556,0.6229387521743774,0.8786464246251088,9.09188461303711,1.719885230064392,9.133193969726562,1.788217544555664,4.52475643157959,2.7608094215393066,,,,,,
8526472000.0,387.78,24.350000381469727,6529777152.0,3542.8747686312963,177.0,0.0338623970746994,2916352.0,3714.6604146957397,0.007263827137649059,0.06878662109375,2.0724616050720215,-0.017160210758447647,0.2570250332355499,-0.020724618807435036,0.003564404556527734,0.0,-0.013543086126446724,0.7278333902359009,0.810367184879264,9.043949127197266,1.5064563751220703,9.030406951904297,1.6713815927505493,4.62449312210083,2.76141619682312,,,,,,
8526472000.0,398.92,24.8799991607666,6529777152.0,3570.3158982618475,178.0,0.03305264934897423,2932736.0,3719.249364376068,0.005280270706862211,0.05859375,2.0517566204071045,-0.018211137503385544,0.11726906895637512,-0.020517565310001373,0.0023064278066158295,0.0,0.03827952593564987,0.4858801066875458,0.8963206170388954,9.082090377807617,1.4856693744659424,9.120369911193848,1.508980631828308,4.588949680328369,2.7653048038482666,,,,,,
8526472000.0,401.8,25.149999618530273,6529777152.0,3578.6182770467385,179.0,0.030260732397437096,2949120.0,3723.8276677131653,0.0054809097200632095,0.06048583984375,2.0649819374084473,-0.01901310682296753,0.12427930533885956,-0.020649820566177368,0.0016367100179195404,0.0,0.06947065144777298,0.49461230635643005,0.88797422939267,9.272563934326172,1.4279911518096924,9.342034339904785,1.4777671098709106,4.578303337097168,2.762345314025879,,,,,,
8526472000.0,408.74,26.510000228881836,6529777152.0,3586.569028435832,180.0,0.039562128484249115,2965504.0,3728.3958218097687,0.005467611365020275,0.06884765625,2.0642952919006348,-0.017294183373451233,0.16585186123847961,-0.020642951130867004,0.003348768223077059,0.0,0.05996521934866905,0.5781237483024597,0.8518404620812053,9.346511840820312,1.4164421558380127,9.406477928161621,1.5019527673721313,4.5681540966033936,2.766772508621216,,,,,,
8526472000.0,406.98,26.940000534057617,6529777152.0,3613.0210830744077,181.0,0.03109545260667801,2981888.0,3732.930531024933,0.004658084362745285,0.04351806640625,2.063037633895874,-0.01825542375445366,0.1156691312789917,-0.020630376413464546,0.0023749517276883125,0.0,0.057290446013212204,0.47864043712615967,0.9091913936113034,9.528615951538086,1.5732612609863281,9.585906028747559,1.588349461555481,4.534709215164185,2.767216444015503,,,,,,
8526472000.0,403.5,27.239999771118164,6529777152.0,3513.052671550692,182.0,0.03757316619157791,2998272.0,3737.5942811965942,0.004573047161102295,0.0382080078125,2.029268980026245,-0.018014712259173393,0.09460309892892838,-0.02029269002377987,0.002277979627251625,0.0,0.07781271636486053,0.4361824095249176,0.9199695620853963,9.172220230102539,1.487033724784851,9.250032424926758,1.541839599609375,4.663750171661377,2.8058297634124756,,,,,,
8526472000.0,402.75,26.979999542236328,6529777152.0,3542.188483799828,183.0,0.032800089567899704,3014656.0,3742.2196702957153,0.005418093409389257,0.0626220703125,2.0746653079986572,-0.019316788762807846,0.17486774921417236,-0.020746655762195587,0.0014298651367425919,0.0,0.0397326797246933,0.5870969891548157,0.8447945574883747,9.364407539367676,1.3952986001968384,9.40414047241211,1.4902399778366089,4.625389099121094,2.764158010482788,,,,,,
