CpuMaxMemory,EpLenMean,EpRewMean,GpuMaxMemory,IPS_total,Iter,Misc/FrameRewMean,Misc/InteractCount,Misc/TimeElapsed,Opt/approxkl,Opt/clipfrac,Opt/entropy,Opt/loss_pi,Opt/loss_vf,Opt/negent,Opt/pg,Opt/pi_kl,VFStats/AdvMean,VFStats/AdvStd,VFStats/EV,VFStats/VpredMean,VFStats/VpredStd,VFStats/VtargMean,VFStats/VtargStd,del_time,wait_optimization,scaled/pol_distance,scaled/vf_aux,scaled/vf_true,unscaled/pol_distance,unscaled/vf_aux,unscaled/vf_true
2400368000.0,79.56,-1.8200000524520874,6317166080.0,3526.1690086381536,0.0,-0.01170444581657648,16384.0,4.646402359008789,0.0032121550757437944,0.02008056640625,2.7046360969543457,-0.027269575744867325,0.14848732948303223,-0.027046360075473785,-0.00022321694996207952,0.0,-0.1763964295387268,0.5402925610542297,0.00030302720536357075,0.06938555091619492,0.019351642578840256,-0.1070108711719513,0.5403744578361511,4.646402359008789,2.7167749404907227,,,,,,
2597720000.0,87.34,-2.990000009536743,6519754752.0,3559.226283781054,1.0,-0.013766424730420113,32768.0,9.249650001525879,0.003908753395080566,0.032958984375,2.6952710151672363,-0.02678295224905014,0.15736474096775055,-0.02695271000266075,0.00016975775361061096,0.0,-0.1885109394788742,0.5502991676330566,0.00893096521375325,-0.03661363944411278,0.036903053522109985,-0.22512458264827728,0.5527731776237488,4.60324764251709,2.7188456058502197,,,,,,
2794400000.0,79.1,-2.640000104904175,6519754752.0,3553.9463759607415,2.0,-0.013879910111427307,49152.0,13.859736442565918,0.0011949242325499654,0.0,2.702221393585205,-0.026156291365623474,0.16470471024513245,-0.027022214606404305,0.0008659278973937035,0.0,-0.15743893384933472,0.5649361610412598,-0.009137867797404331,-0.16930896043777466,0.04577970504760742,-0.3267478942871094,0.5623725652694702,4.610086441040039,2.71616530418396,,,,,,
2991344000.0,84.91,-2.0299999713897705,6519754752.0,3700.6277456247094,3.0,-0.012197249568998814,65536.0,18.2870934009552,0.0021667610853910446,0.01824951171875,2.692542552947998,-0.027103396132588387,0.16844747960567474,-0.026925424113869667,-0.00017797574400901794,0.0,-0.07949670404195786,0.5761904716491699,0.019998570912075242,-0.4388015866279602,0.05826598405838013,-0.5182982683181763,0.5820398330688477,4.427356958389282,2.7322418689727783,,,,,,
3187760000.0,84.17,-2.1500000953674316,6519754752.0,3627.8562319041343,4.0,-0.012054448015987873,81920.0,22.803259134292603,0.001635741675272584,0.00982666015625,2.6991519927978516,-0.027067318558692932,0.17595088481903076,-0.026991520076990128,-7.579848170280457e-05,0.0,-0.08405674993991852,0.5855156183242798,0.0255575635525358,-0.4166377782821655,0.05149615556001663,-0.5006945133209229,0.5931443572044373,4.516165733337402,2.7266898155212402,,,,,,
3384440000.0,82.12,-2.6700000762939453,6519754752.0,3687.318026411314,5.0,-0.010945221409201622,98304.0,27.246597051620483,0.0003393139340914786,0.0,2.70080828666687,-0.027280855923891068,0.18085123598575592,-0.02700808458030224,-0.0002727702958509326,0.0,-0.028522785753011703,0.5929816961288452,0.06254572521387103,-0.5860569477081299,0.08693233877420425,-0.6145796775817871,0.612443745136261,4.443337917327881,2.731701612472534,,,,,,
3581120000.0,80.0,-2.559999942779541,6519754752.0,3554.440311094516,6.0,-0.01533160824328661,114688.0,31.856042861938477,0.0016974416794255376,0.0,2.6878461837768555,-0.026949364691972733,0.20284980535507202,-0.026878463104367256,-7.090438157320023e-05,0.0,-0.045346543192863464,0.6372817754745483,0.07357226488003099,-0.7405693531036377,0.11045292019844055,-0.7859159111976624,0.6621032953262329,4.609445810317993,2.7403078079223633,,,,,,
3777648000.0,78.02,-2.4700000286102295,6519754752.0,3545.9595741018315,7.0,-0.012698771432042122,131072.0,36.47651290893555,0.0012447299668565392,0.0078125,2.673797130584717,-0.02709987387061119,0.17269545793533325,-0.02673797309398651,-0.00036190450191497803,0.0,-0.028675377368927002,0.5898416638374329,0.11371917817649435,-0.6220419406890869,0.12119285762310028,-0.6507173776626587,0.6265414357185364,4.62047004699707,2.746400833129883,,,,,,
3974260000.0,86.12,-2.2699999809265137,6519754752.0,3592.3084043249173,8.0,-0.01231289841234684,147456.0,41.03736853599548,0.0027219385374337435,0.00982666015625,2.648240566253662,-0.025773901492357254,0.20866332948207855,-0.02648240700364113,0.0007085027173161507,0.0,0.02997763641178608,0.5934675931930542,0.19818599411154558,-0.9159492254257202,0.27968379855155945,-0.8859716057777405,0.6627659201622009,4.5608556270599365,2.7404019832611084,,,,,,
4170940000.0,90.14,-2.509999990463257,6519754752.0,3659.5564509253313,9.0,-0.011980867944657803,163840.0,45.514413833618164,0.0011274683056399226,0.002685546875,2.658383846282959,-0.02612471766769886,0.1909179985523224,-0.02658383548259735,0.0004591168835759163,0.0,0.036184586584568024,0.5984494090080261,0.1395593076902235,-0.8926249742507935,0.1766854077577591,-0.8564404249191284,0.6451593041419983,4.477045297622681,2.7405641078948975,,,,,,
4367620000.0,79.84,-2.2799999713897705,6519754752.0,3554.0070304917713,10.0,-0.012706412933766842,180224.0,50.1244215965271,0.0019464923534542322,0.0120849609375,2.6496293544769287,-0.026176365092396736,0.17172424495220184,-0.026496291160583496,0.0003199232742190361,0.0,-0.0039789373986423016,0.5874383449554443,0.1692044015498475,-0.7120589017868042,0.17292243242263794,-0.7160378098487854,0.6444885730743408,4.6100077629089355,2.756894111633301,,,,,,
4564300000.0,75.89,-2.3299999237060547,6519754752.0,3472.635666958565,11.0,-0.012822898104786873,196608.0,54.84245181083679,0.0029776510782539845,0.0408935546875,2.6437647342681885,-0.026756150647997856,0.1626657396554947,-0.02643764577805996,-0.00031850486993789673,0.0,0.005355623550713062,0.5722848773002625,0.2124707828577802,-0.7170151472091675,0.21060854196548462,-0.7116595506668091,0.6448800563812256,4.718030214309692,2.7551376819610596,,,,,,
4760716000.0,87.04,-2.25,6519754752.0,3494.342104290329,12.0,-0.0108641954138875,212992.0,59.531174182891846,0.005557740572839975,0.08111572265625,2.6758577823638916,-0.026342321187257767,0.15483056008815765,-0.026758573949337006,0.0004162527620792389,0.0,0.022722184658050537,0.5568619966506958,0.24916048459188156,-0.7426741719245911,0.283017635345459,-0.7199519872665405,0.6426492929458618,4.688722372055054,2.754451274871826,,,,,,
4957396000.0,80.55,-1.9700000286102295,6519754752.0,3501.4639938281643,13.0,-0.012495743110775948,229376.0,64.21035981178284,0.0034329502377659082,0.0235595703125,2.6502795219421387,-0.026272175833582878,0.1508301943540573,-0.02650279738008976,0.00023061828687787056,0.0,0.005369381047785282,0.55068439245224,0.29699461569104724,-0.7163589000701904,0.2980852723121643,-0.7109894752502441,0.6567853093147278,4.679185628890991,2.749587059020996,,,,,,
5154076000.0,86.09,-2.3399999141693115,6519754752.0,3465.685330421974,14.0,-0.011972779408097267,245760.0,68.93785190582275,0.0004896402824670076,0.0,2.6642818450927734,-0.02666180208325386,0.15046526491641998,-0.0266428180038929,-1.8982915207743645e-05,0.0,-0.0031144199892878532,0.5557106137275696,0.3123560387320383,-0.7047896385192871,0.341753751039505,-0.7079041004180908,0.6701421141624451,4.727492094039917,2.7578251361846924,,,,,,
5350756000.0,80.9,-1.850000023841858,6519754752.0,3493.937739812834,15.0,-0.01134555321186781,262144.0,73.62711691856384,0.0006500561139546335,0.0,2.6601593494415283,-0.02701232023537159,0.15452291071414948,-0.02660159394145012,-0.0004107281565666199,0.0,0.01634197123348713,0.5474321246147156,0.3743022514068971,-0.7052616477012634,0.34905681014060974,-0.6889196634292603,0.6920666694641113,4.689265012741089,2.755704164505005,,,,,,
5547172000.0,78.88,-2.5299999713897705,6519754752.0,3478.9336225851744,16.0,-0.014069556258618832,278528.0,78.3366060256958,0.0018225788371637464,0.00482177734375,2.6840879917144775,-0.027091089636087418,0.15877054631710052,-0.026840882375836372,-0.00025020912289619446,0.0,-0.02439725771546364,0.5580387115478516,0.3758922811321146,-0.6169542074203491,0.3608010709285736,-0.6413514614105225,0.7063738107681274,4.709489107131958,2.7571864128112793,,,,,,
5743852000.0,81.59,-2.140000104904175,6519754752.0,3505.0036570748084,17.0,-0.012598374858498573,294912.0,83.011066198349,0.0012564072385430336,0.0040283203125,2.68686580657959,-0.026772556826472282,0.15950661897659302,-0.026868658140301704,9.609851986169815e-05,0.0,-0.07214229553937912,0.5445210337638855,0.3561136392179425,-0.3884848952293396,0.3084767758846283,-0.46062716841697693,0.6785941123962402,4.674460172653198,2.766981363296509,,,,,,
5940532000.0,83.08,-2.4700000286102295,6519754752.0,3607.7198829876074,18.0,-0.014235017821192741,311296.0,87.55243873596191,0.0007100696675479412,0.0010986328125,2.6961944103240967,-0.02665567211806774,0.17329095304012299,-0.02696194499731064,0.0003062766045331955,0.0,-0.09684720635414124,0.5511131882667542,0.35448965292983237,-0.4234854578971863,0.34445852041244507,-0.5203326940536499,0.6859448552131653,4.541372537612915,2.768397808074951,,,,,,
6136948000.0,86.29,-2.7100000381469727,6519754752.0,3456.4474117540426,19.0,-0.015921492129564285,327680.0,92.29256582260132,0.00043677870417013764,0.00103759765625,2.692014694213867,-0.02723274752497673,0.1744159311056137,-0.026920143514871597,-0.00031260005198419094,0.0,-0.12203004956245422,0.5847353935241699,0.3648040567950066,-0.4391089081764221,0.3473321497440338,-0.5611389875411987,0.7336781024932861,4.740127086639404,2.7588539123535156,,,,,,
6333628000.0,80.39,-1.75,6519754752.0,3584.0628329802007,20.0,-0.011268699541687965,344064.0,96.86391425132751,0.0004910258576273918,0.0,2.6797561645507812,-0.02696838602423668,0.12764106690883636,-0.02679755911231041,-0.00017082318663597107,0.0,-0.03217235207557678,0.5069751739501953,0.3601808712847314,-0.48441487550735474,0.3243545889854431,-0.5165872573852539,0.6338085532188416,4.571348428726196,2.7582175731658936,,,,,,
6530308000.0,86.27,-2.0999999046325684,6519754752.0,3596.917553018037,21.0,-0.013508656993508339,360448.0,101.41892552375793,0.0008571683429181576,0.0025634765625,2.671562671661377,-0.02607172727584839,0.15517570078372955,-0.026715625077486038,0.000643901526927948,0.0,-0.044049929827451706,0.5490838289260864,0.4058976808518312,-0.6067214012145996,0.37614187598228455,-0.6507713794708252,0.7123739719390869,4.55501127243042,2.756575345993042,,,,,,
6726988000.0,86.45,-2.309999942779541,6519754752.0,3560.9976142377977,22.0,-0.01101512648165226,376832.0,106.01988339424133,0.000804758514277637,0.001220703125,2.6730074882507324,-0.0265333391726017,0.15106149017810822,-0.026730075478553772,0.0001967374701052904,0.0,0.0010577513603493571,0.5436704158782959,0.42029884744351453,-0.6293732523918152,0.4493159353733063,-0.6283155679702759,0.7140583395957947,4.600957870483398,2.7664592266082764,,,,,,
6924196000.0,77.06,-2.2200000286102295,6519754752.0,3497.3568206992986,23.0,-0.013504380360245705,393216.0,110.70456409454346,0.0010898204054683447,0.00787353515625,2.662517547607422,-0.02650810033082962,0.1531515121459961,-0.026625173166394234,0.00011707167141139507,0.0,-0.00821314100176096,0.5568729639053345,0.5020439933425942,-0.6856443881988525,0.4985465109348297,-0.6938574910163879,0.7891520261764526,4.684680700302124,2.7683351039886475,,,,,,
7121932000.0,79.61,-2.509999990463257,6519754752.0,3551.4980301749397,24.0,-0.01247289590537548,409600.0,115.31782865524292,0.0012821006821468472,0.0050048828125,2.644822597503662,-0.026606902480125427,0.14509153366088867,-0.02644822560250759,-0.000158676877617836,0.0,0.02417466789484024,0.5308433175086975,0.5285678448130149,-0.678508996963501,0.5690973997116089,-0.654334306716919,0.7731375098228455,4.613264560699463,2.7562081813812256,,,,,,
7320724000.0,82.93,-2.440000057220459,6519754752.0,3488.5660633445573,25.0,-0.013270143419504166,425984.0,120.0143141746521,0.001787035958841443,0.013916015625,2.6615400314331055,-0.02678762935101986,0.1430506557226181,-0.02661539986729622,-0.00017223134636878967,0.0,-0.051944468170404434,0.5358914732933044,0.39072687106904436,-0.46306318044662476,0.4709477126598358,-0.5150076150894165,0.6865478157997131,4.69648551940918,2.7579243183135986,,,,,,
7517932000.0,78.69,-2.0199999809265137,6519754752.0,3607.482198472667,26.0,-0.011967314407229424,442368.0,124.55598592758179,0.0004862407222390175,0.00048828125,2.6694159507751465,-0.026893597096204758,0.1312676966190338,-0.02669415809214115,-0.00019943807274103165,0.0,0.005889715626835823,0.5088406205177307,0.4724253578676162,-0.580310046672821,0.45041319727897644,-0.5744203329086304,0.7005511522293091,4.5416717529296875,2.7650983333587646,,,,,,
7715668000.0,75.33,-2.440000057220459,6519754752.0,3501.834412419866,27.0,-0.013380076736211777,458752.0,129.23467659950256,0.002506731078028679,0.02252197265625,2.6430563926696777,-0.026830464601516724,0.12343036383390427,-0.026430562138557434,-0.00039990153163671494,0.0,-0.025391213595867157,0.4991576373577118,0.4888355375896891,-0.46831023693084717,0.4374711513519287,-0.49370139837265015,0.6981639266014099,4.678690671920776,2.766813039779663,,,,,,
7913404000.0,78.38,-2.2200000286102295,6519754752.0,3622.7864424936265,28.0,-0.013065602630376816,475136.0,133.7571623325348,0.000759566726628691,0.0010986328125,2.652304172515869,-0.025997508317232132,0.12112273275852203,-0.02652304247021675,0.0005255341529846191,0.0,-0.0303033497184515,0.48902779817581177,0.5318526749540953,-0.4647763967514038,0.4679252803325653,-0.49507975578308105,0.7147303223609924,4.522485733032227,2.762486219406128,,,,,,
8111404000.0,78.68,-2.1500000953674316,6519754752.0,3472.0191241401294,29.0,-0.012270178645849228,491520.0,138.47603034973145,0.004185843281447887,0.03082275390625,2.6166789531707764,-0.027611713856458664,0.1081613153219223,-0.02616678737103939,-0.0014449246227741241,0.0,-0.024140559136867523,0.46583399176597595,0.602945490839242,-0.4411333203315735,0.535422682762146,-0.465273916721344,0.7392752170562744,4.718868017196655,2.799652338027954,,,,,,
8309404000.0,74.1,-2.0999999046325684,6519754752.0,3616.1138002624966,30.0,-0.012036258354783058,507904.0,143.00686120986938,0.0029227433260530233,0.02490234375,2.583827018737793,-0.026550112292170525,0.1133156269788742,-0.025838268920779228,-0.0007118438370525837,0.0,0.007370582316070795,0.4671444296836853,0.6271070306806603,-0.4595261216163635,0.5785846710205078,-0.45215556025505066,0.764995813369751,4.5308308601379395,2.816396951675415,,,,,,
8508196000.0,74.5,-1.8300000429153442,6519754752.0,3539.1907972098275,31.0,-0.010253854095935822,524288.0,147.63616800308228,0.0051546902395784855,0.04925537109375,2.5393738746643066,-0.026232082396745682,0.10347727686166763,-0.025393737480044365,-0.0008383430540561676,0.0,-0.00015657278709113598,0.4542841613292694,0.6040009274785917,-0.42307260632514954,0.5534378290176392,-0.4232291877269745,0.7219058275222778,4.629306793212891,2.7733023166656494,,,,,,
,,,,,,,,,,,,,,,,,,,,,,,,,,0.0016749707283452153,0.18687090277671814,0.14786745607852936,0.0016749707283452153,0.18687090277671814,0.14786745607852936
,,,,,,,,,,,,,,,,,,,,,,,,,,0.0012975537683814764,0.13095149397850037,0.11938884854316711,0.0012975537683814764,0.13095149397850037,0.11938884854316711
,,,,,,,,,,,,,,,,,,,,,,,,,,0.0010459721088409424,0.11156227439641953,0.10966247320175171,0.0010459721088409424,0.11156227439641953,0.10966247320175171
,,,,,,,,,,,,,,,,,,,,,,,,,,0.000958383665420115,0.10699844360351562,0.10612302273511887,0.000958383665420115,0.10699844360351562,0.10612302273511887
,,,,,,,,,,,,,,,,,,,,,,,,,,0.0008619477739557624,0.10395022481679916,0.10343793034553528,0.0008619477739557624,0.10395022481679916,0.10343793034553528
,,,,,,,,,,,,,,,,,,,,,,,,,,0.0006839275010861456,0.10144612193107605,0.10094128549098969,0.0006839275010861456,0.10144612193107605,0.10094128549098969
8520288000.0,74.91,-2.0299999713897705,6327188480.0,28.205927392880035,32.0,-0.011573612689971924,540672.0,728.5069818496704,0.003670316655188799,0.03765869140625,2.550203561782837,-0.025523224845528603,0.07347983121871948,-0.025502033531665802,-2.118665724992752e-05,0.0,0.010472635738551617,0.3986928462982178,0.693779285877788,-0.48541581630706787,0.5032271146774292,-0.4749431908130646,0.7204786539077759,580.8708138465881,2.79768705368042,,,,,,
8520288000.0,76.42,-1.350000023841858,6529777152.0,3516.138093384161,33.0,-0.008522773161530495,557056.0,733.1666395664215,0.002175456378608942,0.013671875,2.587475299835205,-0.026458803564310074,0.06882147490978241,-0.025874752551317215,-0.0005840528756380081,0.0,0.046428535133600235,0.3812442421913147,0.748771005313206,-0.47918835282325745,0.6274706125259399,-0.4327598214149475,0.760621190071106,4.659657716751099,2.798121213912964,,,,,,
8520288000.0,76.3,-1.2400000095367432,6529777152.0,3500.609796198977,34.0,-0.008959302678704262,573440.0,737.8469669818878,0.0020449974108487368,0.02117919921875,2.549546241760254,-0.027387825772166252,0.06298327445983887,-0.025495462119579315,-0.0018923599272966385,0.0,0.05343665927648544,0.3606747090816498,0.7604734725807378,-0.39769062399864197,0.6678089499473572,-0.3442539572715759,0.736951470375061,4.680327415466309,2.784895658493042,,,,,,
8520288000.0,71.62,-0.7200000286102295,6529777152.0,3542.407963756643,35.0,-0.0047272853553295135,589824.0,742.4720695018768,0.0015507196076214314,0.009521484375,2.594572067260742,-0.02670839987695217,0.05529172345995903,-0.025945719331502914,-0.0007626786828041077,0.0,0.05967006832361221,0.3407810628414154,0.7421255566220244,-0.3095455765724182,0.5827183723449707,-0.2498754858970642,0.6710752844810486,4.625102519989014,2.7706193923950195,,,,,,
8520288000.0,73.68,-0.6899999976158142,6529777152.0,3663.1067878919753,36.0,-0.006367766298353672,606208.0,746.9447755813599,0.00292058102786541,0.02886962890625,2.589308977127075,-0.027686042711138725,0.0475943461060524,-0.025893090292811394,-0.0017929533496499062,0.0,0.03817848861217499,0.3175535500049591,0.8037045655560875,-0.3098517060279846,0.6488001346588135,-0.27167320251464844,0.7167403101921082,4.472706079483032,2.7607967853546143,,,,,,
8520288000.0,75.17,-0.6100000143051147,6529777152.0,3542.0800320315334,37.0,-0.004630313720554113,622592.0,751.570306301117,0.0013059944612905383,0.0128173828125,2.6207275390625,-0.026613976806402206,0.055990539491176605,-0.026207277551293373,-0.0004066969268023968,0.0,0.05044705793261528,0.3404174745082855,0.7719024080556642,-0.24569456279277802,0.6738079190254211,-0.19524750113487244,0.7127735018730164,4.62553071975708,2.765738010406494,,,,,,
8520288000.0,74.81,0.25,6529777152.0,3667.7611182657547,38.0,-0.0015126392245292664,638976.0,756.0373365879059,0.004476274363696575,0.04718017578125,2.6163675785064697,-0.02772044762969017,0.04915010929107666,-0.026163676753640175,-0.0015567722730338573,0.0,0.052384890615940094,0.31300678849220276,0.7353757979645799,-0.16722393035888672,0.5637248158454895,-0.11483903229236603,0.6084697246551514,4.46703028678894,2.762709617614746,,,,,,
8520288000.0,76.82,-0.03999999910593033,6529777152.0,3516.6903196937387,39.0,0.00043905037455260754,655360.0,760.6962625980377,0.0028256913647055626,0.02447509765625,2.6095499992370605,-0.0253138430416584,0.04073447361588478,-0.026095500215888023,0.0007816590368747711,0.0,0.04401872307062149,0.2842925190925598,0.6807475462427222,-0.08028291165828705,0.46238961815834045,-0.03626418858766556,0.5031509399414062,4.658926010131836,2.7630183696746826,,,,,,
8520288000.0,75.03,0.36000001430511475,6529777152.0,3466.6514487984246,40.0,0.0027979882434010506,671744.0,765.4224371910095,0.008866913616657257,0.09307861328125,2.592142343521118,-0.025028327479958534,0.03216778114438057,-0.025921422988176346,0.0008930971380323172,0.0,0.03312892094254494,0.25724855065345764,0.5962001152399005,0.05353671312332153,0.3359917104244232,0.08666563034057617,0.404827356338501,4.726174592971802,2.7638916969299316,,,,,,
8520288000.0,82.76,0.49000000953674316,6529777152.0,3576.086887916351,41.0,0.002545885741710663,688128.0,770.0039813518524,0.008728096261620522,0.0771484375,2.6141345500946045,-0.02430352196097374,0.0443660169839859,-0.026141343638300896,0.0018378235399723053,0.0,0.02014356479048729,0.29717719554901123,0.573713184692368,0.10047270357608795,0.36783531308174133,0.12061627209186554,0.4551604688167572,4.5815441608428955,2.7735369205474854,,,,,,
8520288000.0,82.36,0.44999998807907104,6529777152.0,3435.7615067388833,42.0,0.0036313789896667004,704512.0,774.7726476192474,0.00933956541121006,0.08489990234375,2.5981433391571045,-0.025705579668283463,0.03228238970041275,-0.02598143368959427,0.0002758540213108063,0.0,0.050009358674287796,0.24826596677303314,0.6362851333828434,0.032156847417354584,0.3222641944885254,0.08216620981693268,0.4116581380367279,4.7686662673950195,2.7616610527038574,,,,,,
8520288000.0,86.88,0.5699999928474426,6529777152.0,3445.642481886297,43.0,0.004488073755055666,720896.0,779.5276389122009,0.012273864820599556,0.08392333984375,2.592751979827881,-0.02181994356215,0.028082864359021187,-0.025927521288394928,0.004107579588890076,0.0,0.0326990969479084,0.23238150775432587,0.6995128833147373,0.10482700169086456,0.3630077540874481,0.13752609491348267,0.42392459511756897,4.754991292953491,2.7652156352996826,,,,,,
8520288000.0,81.39,0.9399999976158142,6529777152.0,3600.975201814922,44.0,0.0054431031458079815,737280.0,784.0775175094604,0.009920414537191391,0.110595703125,2.5774917602539062,-0.021584484726190567,0.033267680555582047,-0.025774918496608734,0.004190433770418167,0.0,0.05459950119256973,0.2553609311580658,0.5777872412190456,0.13259544968605042,0.3076874911785126,0.18719494342803955,0.39299657940864563,4.5498785972595215,2.775926351547241,,,,,,
8520288000.0,85.49,1.5199999809265137,6529777152.0,3521.0535826762434,45.0,0.006765378173440695,753664.0,788.7306702136993,0.004123196471482515,0.04058837890625,2.5783402919769287,-0.026149174198508263,0.026294836774468422,-0.02578340470790863,-0.00036576762795448303,0.0,0.03518759086728096,0.2305847704410553,0.6775160117857324,0.2250809371471405,0.32909053564071655,0.26026850938796997,0.40604719519615173,4.653152704238892,2.758575439453125,,,,,,
8520288000.0,83.24,1.2300000190734863,6529777152.0,3512.7150691001093,46.0,0.006369519047439098,770048.0,793.3948686122894,0.008562467060983181,0.0953369140625,2.545969247817993,-0.024060258641839027,0.03121832013130188,-0.025459690019488335,0.0013994323089718819,0.0,0.030244899913668633,0.24973252415657043,0.6442039712701715,0.22703629732131958,0.3346810042858124,0.25728118419647217,0.4186725616455078,4.664198398590088,2.7653119564056396,,,,,,
8520288000.0,92.46,1.4600000381469727,6529777152.0,3582.861857517383,47.0,0.007330320775508881,786432.0,797.9677493572235,0.005130775738507509,0.05255126953125,2.551879405975342,-0.024992186576128006,0.029394956305623055,-0.025518793612718582,0.0005266079679131508,0.0,0.0536627322435379,0.24617651104927063,0.6997740899946187,0.21330291032791138,0.34074854850769043,0.2669656276702881,0.449285626411438,4.572880744934082,2.762589454650879,,,,,,
8520288000.0,91.12,1.559999942779541,6529777152.0,3462.0716251245135,48.0,0.008539928123354912,802816.0,802.7001760005951,0.020171064883470535,0.16912841796875,2.5277767181396484,-0.018271619454026222,0.03411758691072464,-0.025277769193053246,0.007006146013736725,0.0,0.06069576367735863,0.26134777069091797,0.6421010555462995,0.27100419998168945,0.3370368182659149,0.3316999673843384,0.43685629963874817,4.732426643371582,2.7734627723693848,,,,,,
8520288000.0,94.21,1.7599999904632568,6529777152.0,3522.107684649644,49.0,0.008829907514154911,819200.0,807.3519361019135,0.007457779720425606,0.088134765625,2.5462818145751953,-0.020388759672641754,0.038065627217292786,-0.025462819263339043,0.005074062384665012,0.0,0.06873954087495804,0.26680538058280945,0.7503465349420274,0.29222047328948975,0.4067314565181732,0.3609600067138672,0.5339810252189636,4.651760101318359,2.755037307739258,,,,,,
8520288000.0,116.14,2.2899999618530273,6529777152.0,3585.5669155259675,50.0,0.009821206331253052,835584.0,811.9213669300079,0.009557057172060013,0.10186767578125,2.5231130123138428,-0.023524045944213867,0.03121468983590603,-0.025231128558516502,0.0017070826143026352,0.0,0.042413875460624695,0.24843662977218628,0.7475087667320659,0.5064115524291992,0.4143873155117035,0.5488255023956299,0.49441593885421753,4.569430828094482,2.7683169841766357,,,,,,
8520288000.0,104.87,2.0,6529777152.0,3518.1990746533534,51.0,0.009221364744007587,851968.0,816.5782949924469,0.005924380850046873,0.067626953125,2.525331735610962,-0.023970719426870346,0.061020802706480026,-0.02525331825017929,0.001282600685954094,0.0,-0.0020233422983437777,0.26971325278282166,0.7515408034755663,0.6025838851928711,0.47169485688209534,0.6005604863166809,0.541096568107605,4.656928062438965,2.7663235664367676,,,,,,
8520288000.0,116.73,2.1500000953674316,6529777152.0,3660.594504677095,52.0,0.010058974847197533,868352.0,821.0540707111359,0.0064507657662034035,0.07318115234375,2.4879310131073,-0.02487201988697052,0.0505036823451519,-0.02487930841743946,7.288530468940735e-06,0.0,0.013948475942015648,0.2934782803058624,0.744742850295421,0.6306324005126953,0.47283247113227844,0.6445808410644531,0.5808807015419006,4.475775718688965,2.7725446224212646,,,,,,
8520288000.0,120.23,2.740000009536743,6529777152.0,3604.2057255593577,53.0,0.009911809116601944,884736.0,825.5998711585999,0.007926148362457752,0.08929443359375,2.4887137413024902,-0.022539647296071053,0.03889942541718483,-0.02488713711500168,0.0023474907502532005,0.0,0.03282751888036728,0.27897658944129944,0.7177801441218074,0.6176862120628357,0.43531832098960876,0.6505137085914612,0.5251385569572449,4.545800447463989,2.7680704593658447,,,,,,
8520288000.0,119.11,2.640000104904175,6529777152.0,3500.7371235112455,54.0,0.011270752176642418,901120.0,830.2800283432007,0.008048385381698608,0.097412109375,2.464984893798828,-0.02334011159837246,0.04007348418235779,-0.0246498454362154,0.0013097357004880905,0.0,0.05274423584342003,0.2809916138648987,0.680655886423271,0.6619001626968384,0.3992295563220978,0.7146444320678711,0.49723750352859497,4.68015718460083,2.894150495529175,,,,,,
8520288000.0,122.41,2.950000047683716,6529777152.0,3575.8914981335442,55.0,0.01209573820233345,917504.0,834.8618228435516,0.006489684339612722,0.07110595703125,2.4561352729797363,-0.024741381406784058,0.04012720659375191,-0.024561351165175438,-0.00018002931028604507,0.0,0.05734360218048096,0.27740228176116943,0.7225963509650216,0.6631374359130859,0.4088875651359558,0.7204810380935669,0.5266885757446289,4.581794500350952,2.764822244644165,,,,,,
8520288000.0,130.32,3.190000057220459,6529777152.0,3639.1921491139624,56.0,0.012516269460320473,933888.0,839.3639209270477,0.010479195974767208,0.10791015625,2.368703842163086,-0.019353242591023445,0.04798167198896408,-0.023687036707997322,0.004333795513957739,0.0,0.06663071364164352,0.2897604703903198,0.7544699790857357,0.7219510078430176,0.4724174737930298,0.7885816693305969,0.5847722887992859,4.502098083496094,2.761958122253418,,,,,,
8520288000.0,127.69,3.509999990463257,6529777152.0,3459.6043181345863,57.0,0.013612228445708752,950272.0,844.0997226238251,0.016712211072444916,0.17938232421875,2.4386391639709473,-0.01336442120373249,0.07556873559951782,-0.024386391043663025,0.011021965183317661,0.0,0.07642336934804916,0.37915560603141785,0.6573017260236795,0.8120590448379517,0.5152962803840637,0.8884825110435486,0.6476815938949585,4.735801696777344,2.9196712970733643,,,,,,
8520288000.0,133.81,3.75,6529777152.0,3654.4764452522077,58.0,0.013650558888912201,966656.0,848.582991361618,0.015674380585551262,0.16912841796875,2.4435625076293945,-0.014824198558926582,0.10579128563404083,-0.024435624480247498,0.009611427783966064,0.0,0.09176427870988846,0.43817606568336487,0.5611336459630353,0.7916570901870728,0.47789230942726135,0.8834213614463806,0.661427915096283,4.483268737792969,2.764312505722046,,,,,,
8520288000.0,148.31,3.9100000858306885,6529777152.0,3641.5952373167574,59.0,0.012567354366183281,983040.0,853.0821185112,0.006117665208876133,0.0709228515625,2.4129579067230225,-0.01865398697555065,0.13453055918216705,-0.024129578843712807,0.005475591868162155,0.0,0.06706815958023071,0.5006726384162903,0.6094372014818935,1.036514401435852,0.5478618741035461,1.103582501411438,0.8011400699615479,4.499127149581909,2.7666866779327393,,,,,,
8520288000.0,171.33,5.170000076293945,6529777152.0,3402.273299090519,60.0,0.01654905080795288,999424.0,857.8977222442627,0.004862172529101372,0.0469970703125,2.4225962162017822,-0.02162456139922142,0.15983721613883972,-0.024225963279604912,0.002601400949060917,0.0,0.08455823361873627,0.5448951721191406,0.6612778406721858,1.0815974473953247,0.6241564154624939,1.1661555767059326,0.9362484812736511,4.815603733062744,2.9405386447906494,,,,,,
8520288000.0,148.33,4.03000020980835,6529777152.0,3564.1503049726393,61.0,0.014159094542264938,1015808.0,862.4946103096008,0.005404716357588768,0.051513671875,2.461571216583252,-0.02251942828297615,0.13656805455684662,-0.024615710601210594,0.0020962858106940985,0.0,0.09015263617038727,0.4990955591201782,0.7174878761380752,0.9228538870811462,0.6931752562522888,1.0130064487457275,0.9389989376068115,4.596888065338135,2.7656543254852295,,,,,,
8520288000.0,144.56,4.170000076293945,6529777152.0,3556.6633387044258,62.0,0.013580202125012875,1032192.0,867.101175069809,0.005303476937115192,0.05474853515625,2.4599218368530273,-0.024129483848810196,0.13290083408355713,-0.024599216878414154,0.00046973535791039467,0.0,0.11400818079710007,0.49266722798347473,0.7741999300079654,0.8928440809249878,0.8284557461738586,1.0068522691726685,1.0367919206619263,4.60656476020813,2.771069288253784,,,,,,
8520488000.0,134.97,3.759999990463257,6529777152.0,3606.8346434276696,63.0,0.01425393670797348,1048576.0,871.6436622142792,0.006305255461484194,0.0662841796875,2.4161465167999268,-0.022227242588996887,0.10578395426273346,-0.024161463603377342,0.0019342182204127312,0.0,0.09258410334587097,0.4409189820289612,0.7946267454973084,0.8803056478500366,0.7538118958473206,0.97288978099823,0.9729418158531189,4.542487144470215,2.7832350730895996,,,,,,
,,,,,,,,,,,,,,,,,,,,,,,,,,0.04408380761742592,0.1957615613937378,0.1740620732307434,0.04408380761742592,0.1957615613937378,0.1740620732307434
,,,,,,,,,,,,,,,,,,,,,,,,,,0.013730521313846111,0.14538799226284027,0.1417982578277588,0.013730521313846111,0.14538799226284027,0.1417982578277588
,,,,,,,,,,,,,,,,,,,,,,,,,,0.011084193363785744,0.1312662959098816,0.12823842465877533,0.011084193363785744,0.1312662959098816,0.12823842465877533
,,,,,,,,,,,,,,,,,,,,,,,,,,0.010563536547124386,0.125727117061615,0.12408575415611267,0.010563536547124386,0.125727117061615,0.12408575415611267
,,,,,,,,,,,,,,,,,,,,,,,,,,0.009575425647199154,0.11618130654096603,0.11530206352472305,0.009575425647199154,0.11618130654096603,0.11530206352472305
,,,,,,,,,,,,,,,,,,,,,,,,,,0.008759686723351479,0.11230608075857162,0.11279453337192535,0.008759686723351479,0.11230608075857162,0.11279453337192535
8521280000.0,174.0,5.519999980926514,6327188480.0,28.195388780227724,64.0,0.014235410839319229,1064960.0,1452.731588602066,0.0037617599591612816,0.037109375,2.4291441440582275,-0.02191099524497986,0.1050833910703659,-0.02429143898189068,0.002380446530878544,0.0,0.1309739053249359,0.4766002595424652,0.805863211779539,0.8482165336608887,0.881080687046051,0.979190468788147,1.081683874130249,581.0879263877869,2.916957378387451,,,,,,
8521280000.0,172.45,5.090000152587891,6529777152.0,3494.965712558852,65.0,0.01448284275829792,1081344.0,1457.419474363327,0.004655074328184128,0.05517578125,2.421834707260132,-0.022154925391077995,0.22257263958454132,-0.024218345060944557,0.0020634233951568604,0.0,0.1722356528043747,0.7034570574760437,0.7903604049256786,1.1266741752624512,1.367884874343872,1.2989097833633423,1.5363881587982178,4.687885761260986,2.765916109085083,,,,,,
8521280000.0,170.44,5.079999923706055,6529777152.0,3596.637993797636,66.0,0.016180777922272682,1097728.0,1461.9748396873474,0.005924184340983629,0.0621337890625,2.41605544090271,-0.019722864031791687,0.19765570759773254,-0.024160554632544518,0.004437688738107681,0.0,0.15486833453178406,0.6226150989532471,0.7761846611725826,1.2514543533325195,1.1473537683486938,1.406322717666626,1.3160570859909058,4.555365324020386,2.787071466445923,,,,,,
8521280000.0,195.6,6.829999923706055,6529777152.0,3548.19600255914,67.0,0.017901182174682617,1114112.0,1466.5923974514008,0.0070749917067587376,0.0762939453125,2.444911003112793,-0.021057063713669777,0.2442077100276947,-0.02444911189377308,0.0033920463174581528,0.0,0.14156997203826904,0.7050768136978149,0.8174181036836927,1.6282286643981934,1.4745920896530151,1.7697986364364624,1.6500897407531738,4.617557764053345,2.7540206909179688,,,,,,
8521280000.0,200.06,6.460000038146973,6529777152.0,3605.4044088891314,68.0,0.015951726585626602,1130496.0,1471.1366865634918,0.004371983464807272,0.0426025390625,2.429910182952881,-0.021027572453022003,0.3689410984516144,-0.024299100041389465,0.0032715306151658297,0.0,0.1491909921169281,0.7350866198539734,0.7368766014846955,1.6421356201171875,1.3301005363464355,1.791326642036438,1.4330416917800903,4.5442891120910645,2.7561986446380615,,,,,,
8521280000.0,208.57,7.829999923706055,6529777152.0,3662.37450388091,69.0,0.019691331312060356,1146880.0,1475.610286951065,0.003432999365031719,0.03607177734375,2.4467129707336426,-0.024549447000026703,0.29083263874053955,-0.02446713298559189,-8.231215178966522e-05,0.0,0.1868983656167984,0.74631667137146,0.827762562803934,2.1441080570220947,1.5452595949172974,2.3310062885284424,1.7982884645462036,4.473600387573242,2.763831853866577,,,,,,
8521280000.0,229.43,8.619999885559082,6529777152.0,3656.4125507635717,70.0,0.019844744354486465,1163264.0,1480.091181755066,0.005117557477205992,0.05596923828125,2.4124529361724854,-0.02383161336183548,0.3490462899208069,-0.024124527350068092,0.00029291585087776184,0.0,0.13427919149398804,0.799316942691803,0.8064532559514441,2.28047251701355,1.5900776386260986,2.4147515296936035,1.816879153251648,4.4808948040008545,2.763519048690796,,,,,,
8521280000.0,226.17,8.470000267028809,6529777152.0,3655.690524928068,71.0,0.018436867743730545,1179648.0,1484.5729615688324,0.005297601222991943,0.048583984375,2.3931655883789062,-0.021433113142848015,0.25155842304229736,-0.023931656032800674,0.00249854801222682,0.0,0.15344956517219543,0.6821279525756836,0.8112999410885098,2.0036940574645996,1.3789790868759155,2.1571435928344727,1.5702893733978271,4.4817798137664795,2.753546953201294,,,,,,
8521280000.0,202.72,7.239999771118164,6529777152.0,3579.5253309080717,72.0,0.018956340849399567,1196032.0,1489.1501047611237,0.004091148264706135,0.04315185546875,2.400888442993164,-0.021661289036273956,0.2605324387550354,-0.02400888316333294,0.0023475969210267067,0.0,0.10141144692897797,0.7218352556228638,0.8276803263903881,2.1543993949890137,1.5539528131484985,2.2558109760284424,1.7388845682144165,4.57714319229126,2.755422353744507,,,,,,
8521280000.0,214.68,7.619999885559082,6529777152.0,3476.9503925664744,73.0,0.01692507602274418,1212416.0,1493.8622801303864,0.0030845929868519306,0.03216552734375,2.373255968093872,-0.02392236515879631,0.2265262007713318,-0.023732556030154228,-0.00018980726599693298,0.0,0.13216790556907654,0.6762982606887817,0.8207271267075273,2.1593596935272217,1.385302186012268,2.29152774810791,1.5972799062728882,4.712175369262695,2.7641594409942627,,,,,,
8521280000.0,252.93,10.359999656677246,6529777152.0,3590.6699522173913,74.0,0.022457756102085114,1228800.0,1498.4252169132233,0.003618481568992138,0.03607177734375,2.377993106842041,-0.022027425467967987,0.3018345236778259,-0.02377993054687977,0.0017525050789117813,0.0,0.20155811309814453,0.7718375325202942,0.8428065028921081,2.445819854736328,1.7195374965667725,2.6473779678344727,1.9467427730560303,4.562936782836914,2.7669036388397217,,,,,,
8521280000.0,256.06,11.319999694824219,6529777152.0,3469.6898540184534,75.0,0.020264968276023865,1245184.0,1503.1472527980804,0.0065995557233691216,0.063720703125,2.3724141120910645,-0.020794663578271866,0.2852799594402313,-0.023724138736724854,0.0029294751584529877,0.0,0.2355668544769287,0.7491492629051208,0.8412688611258272,2.555919885635376,1.6616050004959106,2.7914867401123047,1.8803439140319824,4.722035884857178,2.7586967945098877,,,,,,
8521280000.0,248.06,11.729999542236328,6529777152.0,3601.4464349155974,76.0,0.025845065712928772,1261568.0,1507.696536064148,0.003827831009402871,0.0433349609375,2.3652710914611816,-0.02210746705532074,0.3115749955177307,-0.023652711883187294,0.0015452448278665543,0.0,0.134974405169487,0.7903205156326294,0.8563509171427046,2.9082703590393066,1.933168888092041,3.0432450771331787,2.0852200984954834,4.549283266067505,2.758854866027832,,,,,,
8521280000.0,228.02,9.710000038146973,6529777152.0,3539.440714457412,77.0,0.020257802680134773,1277952.0,1512.325515985489,0.0038858104962855577,0.04638671875,2.3586106300354004,-0.021868105977773666,0.31606078147888184,-0.023586107417941093,0.0017180070281028748,0.0,0.1123720109462738,0.756712019443512,0.8330754630206115,2.7826104164123535,1.6887882947921753,2.89498233795166,1.8521260023117065,4.628979921340942,2.764058828353882,,,,,,
8521280000.0,222.36,8.5600004196167,6529777152.0,3581.254591826631,78.0,0.017020799219608307,1294336.0,1516.9004490375519,0.006972865201532841,0.06158447265625,2.320237636566162,-0.02252337336540222,0.30919966101646423,-0.023202378302812576,0.0006790049374103546,0.0,0.10549837350845337,0.729523777961731,0.8207541664332281,2.506469488143921,1.5724960565567017,2.6119678020477295,1.723117470741272,4.574933052062988,2.766183614730835,,,,,,
8521280000.0,243.43,10.229999542236328,6529777152.0,3494.914521734699,79.0,0.02170470915734768,1310720.0,1521.5884034633636,0.006021703127771616,0.06591796875,2.2857577800750732,-0.021355019882321358,0.30634304881095886,-0.022857578471302986,0.0015025604516267776,0.0,0.11025425791740417,0.7629383206367493,0.8478794128646936,2.9399795532226562,1.7765694856643677,3.050233840942383,1.9561200141906738,4.687954425811768,2.759523391723633,,,,,,
8521280000.0,242.63,10.369999885559082,6529777152.0,3613.928177679143,80.0,0.021825138479471207,1327104.0,1526.1219744682312,0.006179697811603546,0.070068359375,2.2725300788879395,-0.019380496814846992,0.28089404106140137,-0.02272529900074005,0.003344806144014001,0.0,0.14986366033554077,0.7490209937095642,0.862480347596969,3.007307767868042,1.7861021757125854,3.1571712493896484,2.0198147296905518,4.533571004867554,2.7586774826049805,,,,,,
8521280000.0,249.15,10.65999984741211,6529777152.0,3479.1743973747625,81.0,0.017450259998440742,1343488.0,1530.8311376571655,0.004135345108807087,0.04327392578125,2.3014461994171143,-0.021647654473781586,0.2907549738883972,-0.023014459758996964,0.001366807147860527,0.0,0.0834970474243164,0.7122342586517334,0.8467698709675553,2.902681827545166,1.6616686582565308,2.9861788749694824,1.8194948434829712,4.709163188934326,2.760376214981079,,,,,,
8521280000.0,258.82,10.949999809265137,6529777152.0,3559.335050653059,82.0,0.025024928152561188,1359872.0,1535.434244632721,0.0049884133040905,0.0533447265625,2.2701468467712402,-0.021667322143912315,0.33590319752693176,-0.02270146831870079,0.0010341499000787735,0.0,0.19673115015029907,0.8187355399131775,0.8586103846921079,3.059349536895752,1.9979690313339233,3.2560808658599854,2.1773834228515625,4.60310697555542,2.7539026737213135,,,,,,
8521280000.0,269.51,11.470000267028809,6529777152.0,3598.24572330683,83.0,0.018993660807609558,1376256.0,1539.9875745773315,0.0018956949934363365,0.01605224609375,2.286302328109741,-0.02197260968387127,0.25031715631484985,-0.022863022983074188,0.0008904142305254936,0.0,0.13857871294021606,0.7068661451339722,0.8641761534776047,2.9327633380889893,1.7027419805526733,3.0713419914245605,1.9180024862289429,4.553329944610596,2.7627909183502197,,,,,,
8521280000.0,272.45,11.6899995803833,6529777152.0,3506.5374682147462,84.0,0.024076033383607864,1392640.0,1544.6599900722504,0.0033706838730722666,0.03656005859375,2.283050060272217,-0.021106211468577385,0.43079710006713867,-0.022830501198768616,0.0017242850735783577,0.0,0.20087407529354095,0.9043959975242615,0.8405759564711561,3.596510171890259,2.163475513458252,3.797384262084961,2.265070676803589,4.672415494918823,2.7688939571380615,,,,,,
8521280000.0,293.12,13.739999771118164,6529777152.0,3506.1234788336337,85.0,0.022554561495780945,1409024.0,1549.3329572677612,0.0037486457731574774,0.03863525390625,2.29677414894104,-0.02170902118086815,0.3745858371257782,-0.022967740893363953,0.001258717617020011,0.0,0.18932506442070007,0.8460919857025146,0.8284473751400803,3.3039777278900146,1.902783751487732,3.493302822113037,2.0427675247192383,4.672967195510864,2.8247759342193604,,,,,,
8521280000.0,306.1,13.90999984741211,6529777152.0,3468.9095721785275,86.0,0.024531368166208267,1425408.0,1554.0560553073883,0.0061477189883589745,0.05096435546875,2.278073310852051,-0.021206999197602272,0.31207704544067383,-0.022780729457736015,0.001573735848069191,0.0,0.176295667886734,0.7648623585700989,0.8213825403282684,3.4084970951080322,1.6636475324630737,3.5847926139831543,1.8097610473632812,4.723098039627075,2.83191180229187,,,,,,
8521280000.0,294.08,13.800000190734863,6529777152.0,3640.167388375605,87.0,0.02486494556069374,1441792.0,1558.5569472312927,0.004743998870253563,0.03643798828125,2.284576416015625,-0.02022693306207657,0.2857494354248047,-0.022845763713121414,0.0026188306510448456,0.0,0.15272095799446106,0.7499619126319885,0.8727480807860558,3.3562822341918945,1.8915088176727295,3.509003162384033,2.1023600101470947,4.500891923904419,2.775362968444824,,,,,,
8521280000.0,304.13,15.239999771118164,6529777152.0,3591.0596740733185,88.0,0.02433142438530922,1458176.0,1563.1193888187408,0.004193542525172234,0.04388427734375,2.2852022647857666,-0.02119946852326393,0.315690815448761,-0.02285202220082283,0.001652553677558899,0.0,0.2547537386417389,0.7629209160804749,0.8591159534428311,3.4078640937805176,1.823749303817749,3.6626176834106445,2.0325844287872314,4.56244158744812,2.7564985752105713,,,,,,
8521280000.0,297.03,14.180000305175781,6529777152.0,3522.8194384423114,89.0,0.021554160863161087,1474560.0,1567.7702090740204,0.004689979832619429,0.04248046875,2.314039707183838,-0.02142900973558426,0.2550392746925354,-0.023140396922826767,0.001711387187242508,0.0,0.16317898035049438,0.7041874527931213,0.8655397989959576,3.4426584243774414,1.7365792989730835,3.605837106704712,1.9203989505767822,4.650820255279541,2.7617266178131104,,,,,,
8521280000.0,306.13,15.460000038146973,6529777152.0,3606.460795735527,90.0,0.02702399529516697,1490944.0,1572.3131670951843,0.004248848184943199,0.03631591796875,2.3177127838134766,-0.021154722198843956,0.3175666928291321,-0.023177126422524452,0.0020224079489707947,0.0,0.24288102984428406,0.7720739841461182,0.8562709504855481,3.745157480239868,1.8581328392028809,3.9880385398864746,2.036510705947876,4.54295802116394,2.7672553062438965,,,,,,
8521280000.0,328.2,17.049999237060547,6529777152.0,3501.563727926019,91.0,0.024658648297190666,1507328.0,1576.9922194480896,0.004581606946885586,0.052001953125,2.3028082847595215,-0.020702864974737167,0.3438989818096161,-0.02302808314561844,0.00232522189617157,0.0,0.13691984117031097,0.813377857208252,0.8200136495862578,3.7420690059661865,1.7305432558059692,3.878988742828369,1.9172227382659912,4.679052352905273,2.7700393199920654,,,,,,
8521280000.0,324.26,15.0,6529777152.0,3558.06234153765,92.0,0.02252800390124321,1523712.0,1581.5969729423523,0.003338608890771866,0.0341796875,2.295984983444214,-0.021293096244335175,0.3333839178085327,-0.02295984886586666,0.0016667526215314865,0.0,0.17097949981689453,0.7890030741691589,0.8224606642596698,3.67202091217041,1.701991081237793,3.8430004119873047,1.8725411891937256,4.604753494262695,2.7773044109344482,,,,,,
8521280000.0,335.62,16.280000686645508,6529777152.0,3472.8348532155146,93.0,0.025245413184165955,1540096.0,1586.3147325515747,0.003567778505384922,0.03564453125,2.309915781021118,-0.02187889814376831,0.33172139525413513,-0.023099156096577644,0.0012202600482851267,0.0,0.23627619445323944,0.7888684272766113,0.8484066518869248,3.6562180519104004,1.8286212682724,3.8924942016601562,2.0261175632476807,4.717759609222412,2.764023542404175,,,,,,
8521280000.0,340.81,17.15999984741211,6529777152.0,3535.8532037584882,94.0,0.025882111862301826,1556480.0,1590.9484090805054,0.007361673749983311,0.0784912109375,2.344099521636963,-0.019171036779880524,0.4047302007675171,-0.023440994322299957,0.004269958008080721,0.0,0.18771135807037354,0.883329451084137,0.8071458700608988,3.982182502746582,1.8897595405578613,4.169893741607666,2.0114450454711914,4.633676528930664,2.770240068435669,,,,,,
8521436000.0,342.32,16.989999771118164,6529777152.0,3585.2539519091283,95.0,0.02517847530543804,1572864.0,1595.5182387828827,0.004584370646625757,0.04931640625,2.3489737510681152,-0.021955499425530434,0.32003432512283325,-0.023489737883210182,0.0015342365950345993,0.0,0.21008972823619843,0.7739814519882202,0.8265047641430052,4.1352219581604,1.7132409811019897,4.345311164855957,1.8581751585006714,4.569829702377319,2.786468744277954,,,,,,
,,,,,,,,,,,,,,,,,,,,,,,,,,0.03473864495754242,0.7836018800735474,0.7162837386131287,0.03473864495754242,0.7836018800735474,0.7162837386131287
,,,,,,,,,,,,,,,,,,,,,,,,,,0.020273935049772263,0.6267322301864624,0.5784967541694641,0.020273935049772263,0.6267322301864624,0.5784967541694641
,,,,,,,,,,,,,,,,,,,,,,,,,,0.018461909145116806,0.5961685180664062,0.5535693168640137,0.018461909145116806,0.5961685180664062,0.5535693168640137
,,,,,,,,,,,,,,,,,,,,,,,,,,0.017489075660705566,0.5568407773971558,0.5279690623283386,0.017489075660705566,0.5568407773971558,0.5279690623283386
,,,,,,,,,,,,,,,,,,,,,,,,,,0.01613747701048851,0.520468533039093,0.496207058429718,0.01613747701048851,0.520468533039093,0.496207058429718
,,,,,,,,,,,,,,,,,,,,,,,,,,0.014500261284410954,0.48941799998283386,0.47225460410118103,0.014500261284410954,0.48941799998283386,0.47225460410118103
8521436000.0,340.69,16.690000534057617,6327188480.0,28.23074092128518,96.0,0.024075113236904144,1589248.0,2175.878493785858,0.003125215880572796,0.03033447265625,2.343660354614258,-0.021643493324518204,0.3254815638065338,-0.02343660593032837,0.0017931116744875908,0.0,0.18194228410720825,0.8062684535980225,0.8613825607748147,3.089899778366089,2.057084798812866,3.2718420028686523,2.165562629699707,580.3602550029755,2.797210216522217,,,,,,
8521436000.0,333.18,15.579999923706055,6529777152.0,3547.6574640426534,97.0,0.023165691643953323,1605632.0,2180.496752500534,0.002648266963660717,0.025146484375,2.332479953765869,-0.02213333547115326,0.3344646394252777,-0.02332479879260063,0.0011914707720279694,0.0,0.1981506049633026,0.8022038340568542,0.8689350360164227,3.3647618293762207,2.07662296295166,3.5629119873046875,2.2158548831939697,4.618258714675903,2.769536018371582,,,,,,
8521436000.0,334.17,16.030000686645508,6529777152.0,3522.751175609253,98.0,0.021853582933545113,1622016.0,2185.1476628780365,0.002379755489528179,0.02264404296875,2.3323607444763184,-0.023612791672348976,0.3617572784423828,-0.023323608562350273,-0.00028918415773659945,0.0,0.2578386664390564,0.8162647485733032,0.8608943608604536,3.570107936859131,2.0030860900878906,3.827946662902832,2.188561201095581,4.650910377502441,2.7698676586151123,,,,,,
8521436000.0,357.16,18.239999771118164,6529777152.0,3618.4642038386132,99.0,0.027808867394924164,1638400.0,2189.675550699234,0.0022639017552137375,0.02032470703125,2.303899049758911,-0.022881638258695602,0.32553407549858093,-0.023038987070322037,0.00015734974294900894,0.0,0.21501469612121582,0.8035735487937927,0.855284802049122,4.22625732421875,2.030734062194824,4.441271781921387,2.11236310005188,4.52788782119751,2.7735109329223633,,,,,,
8521436000.0,371.62,19.399999618530273,6529777152.0,3490.6535280555795,100.0,0.027172178030014038,1654784.0,2194.3692276477814,0.0037589226849377155,0.03289794921875,2.2965219020843506,-0.021137036383152008,0.37620803713798523,-0.022965218871831894,0.0018281862139701843,0.0,0.2280876338481903,0.8564496636390686,0.8516849712648317,4.555637359619141,2.100889205932617,4.783724784851074,2.2238693237304688,4.693676948547363,2.787339687347412,,,,,,
8521436000.0,365.79,19.049999237060547,6529777152.0,3527.7956548849097,101.0,0.0225137397646904,1671168.0,2199.0134875774384,0.0031184502877295017,0.03094482421875,2.296384334564209,-0.021554529666900635,0.3467363715171814,-0.022963840514421463,0.0014093094505369663,0.0,0.20429494976997375,0.7980231046676636,0.8283191971561019,4.517979621887207,1.8460272550582886,4.7222747802734375,1.9259930849075317,4.644259929656982,2.7541615962982178,,,,,,
8521436000.0,368.13,19.389999389648438,6529777152.0,3597.4071216430184,102.0,0.02931734174489975,1687552.0,2203.567878961563,0.003402481321245432,0.03271484375,2.3173341751098633,-0.021506188437342644,0.29685693979263306,-0.023173341527581215,0.0016671540215611458,0.0,0.1954900175333023,0.7356309294700623,0.8678899650131091,4.6987409591674805,1.8711442947387695,4.894230842590332,2.0239129066467285,4.554391384124756,2.761216402053833,,,,,,
8521436000.0,362.84,18.489999771118164,6529777152.0,3417.4456426316265,103.0,0.023463517427444458,1703936.0,2208.362102985382,0.0042604850605130196,0.036376953125,2.3114190101623535,-0.02251780778169632,0.32651448249816895,-0.023114191368222237,0.0005963817238807678,0.0,0.12853984534740448,0.7821680903434753,0.8658381827451225,4.634203910827637,2.004378080368042,4.762743949890137,2.135432720184326,4.79422402381897,2.7553977966308594,,,,,,
8521436000.0,346.07,16.90999984741211,6529777152.0,3430.833590373223,104.0,0.025395331904292107,1720320.0,2213.137618780136,0.003279884811490774,0.0323486328125,2.306018829345703,-0.02047094702720642,0.3321548402309418,-0.023060189560055733,0.0025892406702041626,0.0,0.10903985798358917,0.803820788860321,0.8463373032347055,4.801650047302246,1.9116586446762085,4.9106903076171875,2.050572156906128,4.775515794754028,2.760218858718872,,,,,,
8521436000.0,337.11,15.350000381469727,6529777152.0,3422.7060590327656,105.0,0.022973131388425827,1736704.0,2217.924474477768,0.006519220303744078,0.06109619140625,2.3060617446899414,-0.021015390753746033,0.36466532945632935,-0.023060619831085205,0.002045230008661747,0.0,0.04732544720172882,0.8410989046096802,0.8139116750899993,4.878106117248535,1.8412035703659058,4.925431728363037,1.9497888088226318,4.786855697631836,2.7532811164855957,,,,,,
8521436000.0,349.64,16.559999465942383,6529777152.0,3545.8808973293512,106.0,0.024553174152970314,1753088.0,2222.545047044754,0.005407083313912153,0.05670166015625,2.327857732772827,-0.020601119846105576,0.2949870526790619,-0.023278577253222466,0.0026774569414556026,0.0,0.20068421959877014,0.7576183080673218,0.8403274806688538,5.197966575622559,1.8316481113433838,5.398650169372559,1.8959860801696777,4.620572566986084,2.757868766784668,,,,,,
8521436000.0,357.23,17.68000030517578,6529777152.0,3511.707675705022,107.0,0.025747187435626984,1769472.0,2227.21058344841,0.0043345484882593155,0.0445556640625,2.3149712085723877,-0.02388782612979412,0.3481450378894806,-0.02314971201121807,-0.0007381103932857513,0.0,0.09559912979602814,0.8049994111061096,0.8061123034890566,5.248590469360352,1.740776538848877,5.344189643859863,1.8281863927841187,4.665536403656006,2.759758949279785,,,,,,
8521436000.0,363.57,18.299999237060547,6529777152.0,3534.0444539070336,108.0,0.02471170201897621,1785856.0,2231.846631526947,0.005271384492516518,0.052978515625,2.31121826171875,-0.01980055868625641,0.3644970655441284,-0.023112181574106216,0.003311626613140106,0.0,0.1260232776403427,0.8377425670623779,0.7675259076216145,5.684941291809082,1.6353228092193604,5.810964584350586,1.7374933958053589,4.636048078536987,2.7540831565856934,,,,,,
8521436000.0,366.87,18.65999984741211,6529777152.0,3597.9731160459355,109.0,0.027126461267471313,1802240.0,2236.4003064632416,0.0023519457317888737,0.019287109375,2.3333535194396973,-0.022789709270000458,0.2845342755317688,-0.023333538323640823,0.0005438327789306641,0.0,0.1398998349905014,0.7431674599647522,0.7880024449045231,5.684150695800781,1.5331603288650513,5.824050426483154,1.614065170288086,4.553674936294556,2.742058038711548,,,,,,
8521436000.0,368.0,20.420000076293945,6529777152.0,3523.7660000551746,110.0,0.03139173611998558,1818624.0,2241.0498774051666,0.0022617534268647432,0.02032470703125,2.3155267238616943,-0.02299949713051319,0.28816983103752136,-0.023155266419053078,0.0001557676587253809,0.0,0.12110637128353119,0.7495057582855225,0.8136040493340534,5.837586402893066,1.6037545204162598,5.95869255065918,1.7360275983810425,4.649570941925049,2.756812334060669,,,,,,
8521436000.0,360.79,19.850000381469727,6529777152.0,3558.6451389091353,111.0,0.024262867867946625,1835008.0,2245.6538767814636,0.0037086494266986847,0.03790283203125,2.322845935821533,-0.021551121026277542,0.2605755031108856,-0.023228459060192108,0.0016773343086242676,0.0,0.12288769334554672,0.7154290676116943,0.8267520950648077,5.908143043518066,1.5923007726669312,6.031030654907227,1.7188279628753662,4.603999376296997,2.7533042430877686,,,,,,
8521436000.0,373.14,20.780000686645508,6529777152.0,3478.5585241809495,112.0,0.02586948499083519,1851392.0,2250.363873720169,0.0026791931595653296,0.02752685546875,2.3160462379455566,-0.022466912865638733,0.28370901942253113,-0.023160463199019432,0.0006935484707355499,0.0,0.1182621642947197,0.717710018157959,0.8273153027225679,5.8792195320129395,1.6540436744689941,5.997481346130371,1.727117896080017,4.709996938705444,2.747455596923828,,,,,,
8521436000.0,379.18,19.540000915527344,6529777152.0,3527.0797167146256,113.0,0.030591005459427834,1867776.0,2255.009076356888,0.003597831353545189,0.03533935546875,2.285675048828125,-0.02197529375553131,0.35479792952537537,-0.02285674959421158,0.0008814558386802673,0.0,0.07661126554012299,0.834950864315033,0.7554535001904115,6.1299662590026855,1.6104178428649902,6.206577777862549,1.6884195804595947,4.64520263671875,2.7493398189544678,,,,,,
8521436000.0,369.89,18.979999542236328,6529777152.0,3515.9033282944474,114.0,0.022655321285128593,1884160.0,2259.6690452098846,0.002634289674460888,0.0244140625,2.273965358734131,-0.021325059235095978,0.275818407535553,-0.022739654406905174,0.0014145956374704838,0.0,0.1363961398601532,0.7136785387992859,0.7728284835523326,6.046506881713867,1.4031671285629272,6.182903289794922,1.4973583221435547,4.659968852996826,2.7621891498565674,,,,,,
8521436000.0,369.46,20.770000457763672,6529777152.0,3527.4457974978145,115.0,0.029764240607619286,1900544.0,2264.3137657642365,0.003009907202795148,0.0269775390625,2.245854616165161,-0.02067483961582184,0.2791081368923187,-0.022458544000983238,0.001783709041774273,0.0,0.0775546208024025,0.7331280708312988,0.7837384009648088,6.097372055053711,1.4359618425369263,6.174927234649658,1.576486349105835,4.644720554351807,2.76513934135437,,,,,,
8521436000.0,371.56,20.760000228881836,6529777152.0,3502.0373194044414,116.0,0.02573278173804283,1916928.0,2268.992185354233,0.004245665855705738,0.0494384765625,2.2342920303344727,-0.02153288945555687,0.23628221452236176,-0.022342920303344727,0.0008100308477878571,0.0,0.12848696112632751,0.6786434054374695,0.8115194198098618,5.956308364868164,1.4603404998779297,6.084794998168945,1.563175082206726,4.678419589996338,2.7498114109039307,,,,,,
8521436000.0,372.6,19.780000686645508,6529777152.0,3608.9671509014556,117.0,0.026354674249887466,1933312.0,2273.5319883823395,0.004861342720687389,0.04547119140625,2.231006145477295,-0.021023942157626152,0.23727534711360931,-0.022310059517621994,0.0012861182913184166,0.0,0.1330633908510208,0.6746033430099487,0.7993343052036863,5.820348739624023,1.37661612033844,5.953412055969238,1.5059537887573242,4.5398030281066895,2.8218679428100586,,,,,,
8521436000.0,381.95,20.700000762939453,6529777152.0,3587.4509017950286,118.0,0.03159670904278755,1949696.0,2278.0990195274353,0.0041940538212656975,0.04168701171875,2.2182118892669678,-0.020859191194176674,0.25383156538009644,-0.02218211628496647,0.0013229241594672203,0.0,0.13368716835975647,0.7051336169242859,0.7954102628289674,5.882497787475586,1.4228054285049438,6.0161848068237305,1.5589393377304077,4.567031145095825,2.7558438777923584,,,,,,
8521436000.0,389.61,21.829999923706055,6529777152.0,3547.434952494363,119.0,0.02764718607068062,1966080.0,2282.717567920685,0.0021565479692071676,0.01995849609375,2.2023983001708984,-0.021630696952342987,0.20137085020542145,-0.022023983299732208,0.00039329007267951965,0.0,0.16643363237380981,0.6209349036216736,0.8183976796505559,5.921384334564209,1.3460825681686401,6.087818145751953,1.4570878744125366,4.618548393249512,2.759084701538086,,,,,,
8521436000.0,386.82,22.329999923706055,6529777152.0,3577.9288807286866,120.0,0.02771499566733837,1982464.0,2287.2967534065247,0.004894673824310303,0.04852294921875,2.2376134395599365,-0.0180041566491127,0.21685948967933655,-0.022376134991645813,0.004371976479887962,0.0,0.12850378453731537,0.6566442251205444,0.8158460253630977,5.789149284362793,1.3157023191452026,5.9176530838012695,1.530167818069458,4.579185485839844,2.7447004318237305,,,,,,
8521436000.0,389.16,22.489999771118164,6529777152.0,3481.5688100938705,121.0,0.03051592968404293,1998848.0,2292.0026779174805,0.005648856516927481,0.0626220703125,2.2220489978790283,-0.01985255256295204,0.21112482249736786,-0.022220488637685776,0.002367935376241803,0.0,0.19052352011203766,0.6405400037765503,0.8453182791846063,6.237983226776123,1.5084458589553833,6.428506851196289,1.6286470890045166,4.7059245109558105,2.7640511989593506,,,,,,
8521436000.0,383.72,21.90999984741211,6529777152.0,3551.846616946293,122.0,0.02531769685447216,2015232.0,2296.615489721298,0.004504040814936161,0.0472412109375,2.247058153152466,-0.02078436128795147,0.2290152609348297,-0.02247057855129242,0.0016862228512763977,0.0,0.07940249145030975,0.676768958568573,0.8315920638340426,5.985608100891113,1.5228445529937744,6.065011024475098,1.649147629737854,4.612811803817749,2.765535831451416,,,,,,
8521436000.0,366.97,19.8799991607666,6529777152.0,3441.7373702001373,123.0,0.03171239048242569,2031616.0,2301.375876188278,0.0036352428141981363,0.036865234375,2.2789416313171387,-0.020930804312229156,0.2926679253578186,-0.022789418697357178,0.001858612522482872,0.0,0.09055545926094055,0.752406895160675,0.8300610261806101,6.1681952476501465,1.6514090299606323,6.2587504386901855,1.8251819610595703,4.7603864669799805,2.7606325149536133,,,,,,
8521436000.0,378.05,21.170000076293945,6529777152.0,3541.760740386188,124.0,0.025521118193864822,2048000.0,2306.00182390213,0.004249535966664553,0.0479736328125,2.261038303375244,-0.021376177668571472,0.2802038788795471,-0.022610381245613098,0.0012342063710093498,0.0,0.17788955569267273,0.7382920980453491,0.7871798574805527,6.359217643737793,1.5689988136291504,6.537107467651367,1.6003761291503906,4.625947713851929,2.7738568782806396,,,,,,
8521436000.0,379.78,21.889999389648438,6529777152.0,3601.8084830678335,125.0,0.031198199838399887,2064384.0,2310.550649881363,0.0038246233016252518,0.03900146484375,2.3038549423217773,-0.019680039957165718,0.2642096281051636,-0.023038551211357117,0.0033585112541913986,0.0,0.1446269452571869,0.7009822726249695,0.7666591088834184,6.609077453613281,1.3471840620040894,6.753704071044922,1.4511479139328003,4.548825979232788,2.75848388671875,,,,,,
8521436000.0,380.43,22.65999984741211,6529777152.0,3471.240599923038,126.0,0.029823966324329376,2080768.0,2315.270576238632,0.0031742462888360023,0.03021240234375,2.2825098037719727,-0.02065245807170868,0.267442911863327,-0.022825099527835846,0.002172646578401327,0.0,0.15604141354560852,0.6876170039176941,0.8205113871966669,6.732172012329102,1.4981799125671387,6.888213157653809,1.6230350732803345,4.719926357269287,2.765573740005493,,,,,,
8521436000.0,381.05,23.1200008392334,6529777152.0,3452.907065695524,127.0,0.03060312569141388,2097152.0,2320.0155634880066,0.008651137351989746,0.07733154296875,2.2556569576263428,-0.018951253965497017,0.18907123804092407,-0.022556567564606667,0.0036053117364645004,0.0,0.12376105785369873,0.6060051321983337,0.8173713359074409,6.606600761413574,1.3354419469833374,6.7303619384765625,1.418051838874817,4.74498724937439,2.819204807281494,,,,,,
,,,,,,,,,,,,,,,,,,,,,,,,,,0.03256555274128914,0.9730697870254517,0.8222908973693848,0.03256555274128914,0.9730697870254517,0.8222908973693848
,,,,,,,,,,,,,,,,,,,,,,,,,,0.02023327350616455,0.7659468650817871,0.6915997266769409,0.02023327350616455,0.7659468650817871,0.6915997266769409
,,,,,,,,,,,,,,,,,,,,,,,,,,0.01828669011592865,0.7110866904258728,0.651786744594574,0.01828669011592865,0.7110866904258728,0.651786744594574
,,,,,,,,,,,,,,,,,,,,,,,,,,0.017422307282686234,0.6716217398643494,0.6327021718025208,0.017422307282686234,0.6716217398643494,0.6327021718025208
,,,,,,,,,,,,,,,,,,,,,,,,,,0.016985267400741577,0.6393948197364807,0.6077901721000671,0.016985267400741577,0.6393948197364807,0.6077901721000671
,,,,,,,,,,,,,,,,,,,,,,,,,,0.01749570108950138,0.6297889947891235,0.6072629690170288,0.01749570108950138,0.6297889947891235,0.6072629690170288
8521672000.0,389.75,23.219999313354492,6327188480.0,28.23745874118168,128.0,0.031133463606238365,2113536.0,2900.237748146057,0.004621303640305996,0.05389404296875,2.2826507091522217,-0.02033931203186512,0.2533667981624603,-0.022826509550213814,0.00248719472438097,0.0,0.2295176088809967,0.6931225657463074,0.8242076508717837,5.470113754272461,1.5352495908737183,5.699631214141846,1.653141975402832,580.2221846580505,2.8280720710754395,,,,,,
8521672000.0,394.09,22.290000915527344,6529777152.0,3557.666671429586,129.0,0.025358805432915688,2129920.0,2904.8430137634277,0.003947009332478046,0.03619384765625,2.251650094985962,-0.02118593268096447,0.2114330381155014,-0.02251650206744671,0.0013305693864822388,0.0,0.17231881618499756,0.6411784291267395,0.85389348038675,5.537467002868652,1.6359541416168213,5.709786415100098,1.677429437637329,4.6052656173706055,2.7553470134735107,,,,,,
8521672000.0,392.96,21.959999084472656,6529777152.0,3568.9116931202834,130.0,0.029565686360001564,2146304.0,2909.4337689876556,0.0038804248906672,0.0390625,2.242098808288574,-0.019849343225359917,0.20166656374931335,-0.022420987486839294,0.0025716442614793777,0.0,0.15270113945007324,0.6260676383972168,0.8658366821903923,5.762486457824707,1.5920590162277222,5.915187358856201,1.7092461585998535,4.590755224227905,2.7925400733947754,,,,,,
8521672000.0,391.9,22.139999389648438,6529777152.0,3550.775742725944,131.0,0.029860347509384155,2162688.0,2914.0479719638824,0.0036997392307966948,0.039794921875,2.2045676708221436,-0.020199688151478767,0.2303541600704193,-0.022045673802495003,0.00184598658233881,0.0,0.19337040185928345,0.6562308669090271,0.8503559495734588,6.066187381744385,1.5671321153640747,6.259557723999023,1.6963956356048584,4.614202976226807,2.7728099822998047,,,,,,
8521672000.0,393.68,22.889999389648438,6529777152.0,3593.151393765908,132.0,0.026105016469955444,2179072.0,2918.6077575683594,0.00527871772646904,0.058349609375,2.203885316848755,-0.01949235424399376,0.20180147886276245,-0.022038854658603668,0.0025464980863034725,0.0,0.14867901802062988,0.6064145565032959,0.8554012381942899,5.933862209320068,1.51902437210083,6.082541465759277,1.5947314500808716,4.559785604476929,2.772550344467163,,,,,,
8521672000.0,400.47,23.5,6529777152.0,3558.6665160746843,133.0,0.033038556575775146,2195456.0,2923.211729288101,0.00435482757166028,0.0433349609375,2.181246042251587,-0.02006871998310089,0.23431634902954102,-0.021812457591295242,0.0017437366768717766,0.0,0.15221984684467316,0.6759178042411804,0.8332523061700785,6.163225173950195,1.5910001993179321,6.3154449462890625,1.6552525758743286,4.603971719741821,2.7572693824768066,,,,,,
8521672000.0,391.43,22.40999984741211,6529777152.0,3534.7512225512673,134.0,0.028054459020495415,2211840.0,2927.8468503952026,0.0033266167156398296,0.03399658203125,2.188539981842041,-0.02155189961194992,0.25478115677833557,-0.021885396912693977,0.0003334973007440567,0.0,0.105015829205513,0.698874294757843,0.8465201291316112,6.5843000411987305,1.6579557657241821,6.6893157958984375,1.783912181854248,4.63512110710144,2.7548024654388428,,,,,,
8521672000.0,386.23,22.84000015258789,6529777152.0,3453.7681684691784,135.0,0.029384417459368706,2228224.0,2932.5906546115875,0.003840903053060174,0.03778076171875,2.187809467315674,-0.020395025610923767,0.19410793483257294,-0.02187809720635414,0.001483070314861834,0.0,0.16387835144996643,0.6118936538696289,0.8554513468025575,6.538836479187012,1.5486619472503662,6.702714920043945,1.60941743850708,4.743804216384888,2.7610042095184326,,,,,,
8521672000.0,389.88,23.489999771118164,6529777152.0,3529.946483610768,136.0,0.031195642426609993,2244608.0,2937.232084751129,0.004308512434363365,0.04754638671875,2.15286922454834,-0.020349746569991112,0.2514970302581787,-0.021528691053390503,0.0011789463460445404,0.0,0.1528301239013672,0.683445155620575,0.8353746214483824,6.60532808303833,1.6192106008529663,6.758157730102539,1.6844377517700195,4.641430139541626,2.759660243988037,,,,,,
8521672000.0,386.13,23.639999389648438,6529777152.0,3547.9514418464028,137.0,0.027889229357242584,2260992.0,2941.8499608039856,0.003925923258066177,0.04034423828125,2.1924526691436768,-0.020551621913909912,0.2218087911605835,-0.02192452736198902,0.0013729061465710402,0.0,0.10799893736839294,0.6438568234443665,0.8352778523473489,6.818498611450195,1.5468864440917969,6.926497459411621,1.5864018201828003,4.617876052856445,2.7540338039398193,,,,,,
8521672000.0,390.98,22.799999237060547,6529777152.0,3480.7625488979443,138.0,0.030978143215179443,2277376.0,2946.556975364685,0.003003728110343218,0.02410888671875,2.1910719871520996,-0.020295150578022003,0.22256195545196533,-0.021910719573497772,0.0016155662015080452,0.0,0.06373027712106705,0.6748237013816833,0.8261425224617606,6.979192733764648,1.5009337663650513,7.0429229736328125,1.6184306144714355,4.707014560699463,2.7446823120117188,,,,,,
8521672000.0,396.72,22.579999923706055,6529777152.0,3628.9597383073415,139.0,0.029036812484264374,2293760.0,2951.071767807007,0.0022202143445611,0.0164794921875,2.1736867427825928,-0.02205437421798706,0.19546782970428467,-0.021736865863204002,-0.00031750649213790894,0.0,0.08967559039592743,0.6283641457557678,0.7931974158473688,7.332303524017334,1.3611953258514404,7.421978950500488,1.3817614316940308,4.514792442321777,2.751861333847046,,,,,,
8521672000.0,390.03,22.34000015258789,6529777152.0,3443.9636602936985,140.0,0.028266053646802902,2310144.0,2955.8290770053864,0.0037732990458607674,0.03082275390625,2.133721351623535,-0.021371429786086082,0.27774256467819214,-0.02133721485733986,-3.421562723815441e-05,0.0,0.08308014273643494,0.7387908101081848,0.7686320765264435,7.346931457519531,1.4401358366012573,7.430011749267578,1.5359268188476562,4.757309198379517,2.750431537628174,,,,,,
8521672000.0,398.32,23.770000457763672,6529777152.0,3456.2963408396863,141.0,0.030462101101875305,2326528.0,2960.569411277771,0.003681302536278963,0.03399658203125,2.107374906539917,-0.019034679979085922,0.21818308532238007,-0.021073749288916588,0.002039069775491953,0.0,0.08297800272703171,0.6574883460998535,0.7797964686646572,7.42795467376709,1.3846405744552612,7.510932922363281,1.4011223316192627,4.7403342723846436,2.7522504329681396,,,,,,
8521672000.0,404.81,24.360000610351562,6529777152.0,3605.093079259771,142.0,0.0302207600325346,2342912.0,2965.1140928268433,0.003556004259735346,0.033935546875,2.111609935760498,-0.020911764353513718,0.19261828064918518,-0.021116100251674652,0.00020433776080608368,0.0,0.09321945160627365,0.6253524422645569,0.8096972744536617,7.075456619262695,1.301544189453125,7.168675422668457,1.4335132837295532,4.544681549072266,2.7583541870117188,,,,,,
8521672000.0,413.58,24.459999084472656,6529777152.0,3555.226993607941,143.0,0.03086748905479908,2359296.0,2969.72251868248,0.0044708820059895515,0.0333251953125,2.080352783203125,-0.01931346207857132,0.18606917560100555,-0.020803526043891907,0.0014900658279657364,0.0,0.10962361842393875,0.6018287539482117,0.7846188947761433,7.518919944763184,1.2381396293640137,7.628542900085449,1.2967865467071533,4.608425855636597,2.7411022186279297,,,,,,
8521672000.0,407.0,24.670000076293945,6529777152.0,3590.639370981237,144.0,0.029482625424861908,2375680.0,2974.285494327545,0.0031640795059502125,0.029296875,2.048989772796631,-0.019551344215869904,0.16362513601779938,-0.020489899441599846,0.0009385517332702875,0.0,0.11972440779209137,0.5625668168067932,0.8062356722461844,7.4725542068481445,1.2311978340148926,7.592278480529785,1.2780183553695679,4.562975645065308,2.7549500465393066,,,,,,
8521672000.0,404.16,24.1200008392334,6529777152.0,3544.731516833734,145.0,0.028597846627235413,2392064.0,2978.9075651168823,0.00505236117169261,0.0587158203125,2.069870948791504,-0.01928780786693096,0.1931002289056778,-0.020698707550764084,0.0014109006151556969,0.0,0.06871010363101959,0.6233929395675659,0.7628224701982812,7.53742790222168,1.213248372077942,7.606138229370117,1.2800447940826416,4.622070789337158,2.7609691619873047,,,,,,
8521672000.0,401.28,24.1299991607666,6529777152.0,3612.2088087052794,146.0,0.032030053436756134,2408448.0,2983.4432940483093,0.00427614338696003,0.04168701171875,2.077392578125,-0.019935574382543564,0.17460903525352478,-0.020773926749825478,0.0008383495733141899,0.0,0.08678324520587921,0.5819569826126099,0.7731186383649861,7.477021217346191,1.0878037214279175,7.563804626464844,1.2217755317687988,4.535728931427002,2.7590837478637695,,,,,,
8521672000.0,400.49,24.06999969482422,6529777152.0,3524.1427791267206,147.0,0.029644060879945755,2424832.0,2988.092367887497,0.0046927183866500854,0.0482177734375,2.1213319301605225,-0.01863829232752323,0.17891725897789001,-0.021213321015238762,0.0025750291533768177,0.0,0.08110931515693665,0.5909577012062073,0.7635555621528954,7.540140151977539,1.1055065393447876,7.621249675750732,1.2153244018554688,4.649073839187622,2.7590553760528564,,,,,,
8521672000.0,394.58,23.3700008392334,6529777152.0,3497.7203177717356,148.0,0.03053499013185501,2441216.0,2992.7765617370605,0.005652924999594688,0.0511474609375,2.0946309566497803,-0.01871477998793125,0.18143290281295776,-0.020946310833096504,0.0022315282840281725,0.0,0.08585299551486969,0.5904993414878845,0.7823949601159309,7.451502799987793,1.1382209062576294,7.537356376647949,1.265859603881836,4.684193849563599,2.761530637741089,,,,,,
8521672000.0,400.89,24.520000457763672,6529777152.0,3469.1752314349246,149.0,0.031517110764980316,2457600.0,2997.499298095703,0.004265815019607544,0.0491943359375,2.099494218826294,-0.021342724561691284,0.15969575941562653,-0.020994942635297775,-0.0003477828577160835,0.0,0.13737748563289642,0.5550013184547424,0.7988143089766614,7.555767059326172,1.1895400285720825,7.693144798278809,1.2373591661453247,4.722736358642578,2.7651610374450684,,,,,,
8521672000.0,401.23,25.209999084472656,6529777152.0,3537.1790738851405,150.0,0.033080704510211945,2473984.0,3002.131237745285,0.003580315737053752,0.03155517578125,2.090003490447998,-0.020730063319206238,0.16842877864837646,-0.02090003527700901,0.00016997382044792175,0.0,0.08538507670164108,0.5735193490982056,0.7966471722415348,7.693458557128906,1.15243661403656,7.778844356536865,1.2718143463134766,4.631939649581909,2.7638442516326904,,,,,,
8521672000.0,398.69,25.459999084472656,6529777152.0,3475.410360786958,151.0,0.031920820474624634,2490368.0,3006.8455011844635,0.002788914367556572,0.0277099609375,2.1098153591156006,-0.020351700484752655,0.20445895195007324,-0.021098151803016663,0.0007464513182640076,0.0,0.09235092252492905,0.6208600997924805,0.775967052768761,7.6429948806762695,1.234668493270874,7.735345840454102,1.3117092847824097,4.714263439178467,2.759866237640381,,,,,,
8521672000.0,402.58,25.270000457763672,6529777152.0,3546.7846096453045,152.0,0.030801698565483093,2506752.0,3011.464896440506,0.0035618231631815434,0.03704833984375,2.1465446949005127,-0.019778896123170853,0.15662968158721924,-0.021465444937348366,0.0016865520738065243,0.0,0.09339502453804016,0.5473412275314331,0.7618785951437865,7.779177188873291,1.0739938020706177,7.87257194519043,1.1216506958007812,4.6193952560424805,2.7577953338623047,,,,,,
8521672000.0,406.62,25.459999084472656,6529777152.0,3387.9768765859385,153.0,0.031699247658252716,2523136.0,3016.300820827484,0.0023907930590212345,0.01678466796875,2.151362657546997,-0.021357987076044083,0.17562803626060486,-0.021513624116778374,0.00015563983470201492,0.0,0.06056820601224899,0.5926082730293274,0.7146574679185751,7.855386734008789,1.0426664352416992,7.91595458984375,1.109391212463379,4.835924386978149,2.7641990184783936,,,,,,
8521672000.0,405.0,24.8700008392334,6529777152.0,3432.252074263273,154.0,0.02828095853328705,2539520.0,3021.0743629932404,0.003573748981580138,0.0394287109375,2.1372482776641846,-0.019533559679985046,0.23522555828094482,-0.021372482180595398,0.0018389206379652023,0.0,0.026247136294841766,0.6815334558486938,0.6925824573719879,7.860426902770996,1.0772409439086914,7.886673927307129,1.229201316833496,4.773542165756226,2.7626428604125977,,,,,,
8521672000.0,402.5,23.969999313354492,6529777152.0,3484.2399678019706,155.0,0.030941812321543694,2555904.0,3025.776679754257,0.004931910894811153,0.05633544921875,2.1536996364593506,-0.018867449834942818,0.15276068449020386,-0.021536998450756073,0.002669548150151968,0.0,0.0958159863948822,0.5326828360557556,0.7339765604433892,7.944402694702148,0.9426859021186829,8.040218353271484,1.0327785015106201,4.702316761016846,2.817059278488159,,,,,,
8521672000.0,401.14,24.3700008392334,6529777152.0,3523.128098929288,156.0,0.033847659826278687,2572288.0,3030.427092552185,0.003174716141074896,0.0323486328125,2.1122066974639893,-0.020630495622754097,0.18012887239456177,-0.021122068166732788,0.0004915706813335419,0.0,0.05495674908161163,0.5921932458877563,0.7519698823585929,8.11702823638916,1.0652492046356201,8.171985626220703,1.1890841722488403,4.6504127979278564,2.828935384750366,,,,,,
8521672000.0,404.45,25.170000076293945,6529777152.0,3434.759820941288,157.0,0.02631031721830368,2588672.0,3035.197149515152,0.004403111524879932,0.05487060546875,2.15653657913208,-0.02009916864335537,0.18625709414482117,-0.021565362811088562,0.0014661956811323762,0.0,0.06562470644712448,0.610137939453125,0.7365846608677333,7.98281192779541,1.052571415901184,8.048437118530273,1.1888015270233154,4.770056962966919,2.753525495529175,,,,,,
8521672000.0,404.21,25.040000915527344,6529777152.0,3558.229809442191,158.0,0.03493767976760864,2605056.0,3039.8016862869263,0.0035827672109007835,0.03033447265625,2.116333484649658,-0.019922055304050446,0.18016372621059418,-0.02116333320736885,0.001241285353899002,0.0,0.08195897936820984,0.5740100741386414,0.7301209493602725,8.021232604980469,1.0308005809783936,8.103191375732422,1.1049306392669678,4.604536771774292,2.763518810272217,,,,,,
8521672000.0,404.74,25.700000762939453,6529777152.0,3457.756318504048,159.0,0.03314875066280365,2621440.0,3044.5400190353394,0.005671553313732147,0.04541015625,2.1046011447906494,-0.019086776301264763,0.2083810716867447,-0.02104600891470909,0.0019592363387346268,0.0,0.08924899995326996,0.6381662487983704,0.7495836934138849,8.052145004272461,1.0920835733413696,8.141393661499023,1.275269627571106,4.738332748413086,2.8741824626922607,,,,,,
,,,,,,,,,,,,,,,,,,,,,,,,,,0.023310501128435135,0.6770545840263367,0.5396350026130676,0.023310501128435135,0.6770545840263367,0.5396350026130676
,,,,,,,,,,,,,,,,,,,,,,,,,,0.017363399267196655,0.5507190823554993,0.502189040184021,0.017363399267196655,0.5507190823554993,0.502189040184021
,,,,,,,,,,,,,,,,,,,,,,,,,,0.016346365213394165,0.520350456237793,0.4857623279094696,0.016346365213394165,0.520350456237793,0.4857623279094696
,,,,,,,,,,,,,,,,,,,,,,,,,,0.01674295775592327,0.5004738569259644,0.47256696224212646,0.01674295775592327,0.5004738569259644,0.47256696224212646
,,,,,,,,,,,,,,,,,,,,,,,,,,0.015417184680700302,0.4751729667186737,0.4501997232437134,0.015417184680700302,0.4751729667186737,0.4501997232437134
,,,,,,,,,,,,,,,,,,,,,,,,,,0.014846482314169407,0.4512290060520172,0.43368884921073914,0.014846482314169407,0.4512290060520172,0.43368884921073914
8521672000.0,391.52,24.950000762939453,6327188480.0,28.1697745472849,160.0,0.03197865933179855,2637824.0,3626.156317472458,0.0033733707387000322,0.0302734375,2.071498394012451,-0.019594386219978333,0.2107325941324234,-0.020714983344078064,0.0011205971240997314,0.0,0.06522658467292786,0.6431984305381775,0.8187323829419961,7.55165958404541,1.386728286743164,7.616886138916016,1.5107223987579346,581.6162984371185,2.782346725463867,,,,,,
8521672000.0,391.95,24.989999771118164,6529777152.0,3553.587270035078,161.0,0.034035757184028625,2654208.0,3630.7668697834015,0.00481997849419713,0.05194091796875,2.0868704319000244,-0.01780388131737709,0.1905275583267212,-0.020868703722953796,0.0030648226384073496,0.0,0.12324236333370209,0.6271370649337769,0.8233386844371287,7.745408058166504,1.4597976207733154,7.868649959564209,1.4920768737792969,4.6105523109436035,2.8053104877471924,,,,,,
8521672000.0,395.81,25.139999389648438,6529777152.0,3532.682794644799,162.0,0.027197562158107758,2670592.0,3635.404704809189,0.009159168228507042,0.09967041015625,2.0644941329956055,-0.016716156154870987,0.20354938507080078,-0.020644938573241234,0.003928786143660545,0.0,0.11866889894008636,0.6393696069717407,0.7940687989631872,7.805176734924316,1.3500820398330688,7.923845291137695,1.408933401107788,4.6378350257873535,2.774427652359009,,,,,,
8521672000.0,391.39,24.729999542236328,6529777152.0,3478.897870282696,163.0,0.036283306777477264,2686976.0,3640.1142423152924,0.004368768073618412,0.04876708984375,2.044330596923828,-0.018535930663347244,0.20467449724674225,-0.020443303510546684,0.00190737284719944,0.0,0.04941222071647644,0.6388759016990662,0.7743503354742125,8.058104515075684,1.1819376945495605,8.10751724243164,1.3449304103851318,4.709537506103516,2.8309061527252197,,,,,,
8521672000.0,389.49,24.6200008392334,6529777152.0,3594.105117287338,164.0,0.03072907030582428,2703360.0,3644.6728179454803,0.0040277172811329365,0.04217529296875,2.051438331604004,-0.01759316213428974,0.21743255853652954,-0.020514383912086487,0.0029212175868451595,0.0,0.09811600297689438,0.6377035975456238,0.8229235000857222,7.884123802185059,1.4166353940963745,7.982239723205566,1.5154387950897217,4.558575630187988,2.745920181274414,,,,,,
8521672000.0,396.04,25.079999923706055,6529777152.0,3625.981619109153,165.0,0.03144102543592453,2719744.0,3649.191318511963,0.004105923231691122,0.04119873046875,2.0400373935699463,-0.018614336848258972,0.18180224299430847,-0.02040037326514721,0.0017860373482108116,0.0,0.07172956317663193,0.6053405404090881,0.7738618193467313,8.181217193603516,1.227097511291504,8.252946853637695,1.272949457168579,4.518500566482544,2.754997968673706,,,,,,
8521672000.0,405.92,25.809999465942383,6529777152.0,3569.3013406121595,166.0,0.03096451610326767,2736128.0,3653.7815725803375,0.002891212236136198,0.0272216796875,2.078057050704956,-0.019705692306160927,0.22486548125743866,-0.020780570805072784,0.0010748784989118576,0.0,0.03000413253903389,0.6727158427238464,0.7253879027637808,8.148517608642578,1.1702282428741455,8.178522109985352,1.2837305068969727,4.590254068374634,2.7705583572387695,,,,,,
8521672000.0,405.52,25.889999389648438,6529777152.0,3510.9776229161907,167.0,0.033171698451042175,2752512.0,3658.448079109192,0.005003059282898903,0.0501708984375,2.0447189807891846,-0.018764128908514977,0.1348259001970291,-0.02044718898832798,0.0016830605454742908,0.0,0.11346174776554108,0.5123111009597778,0.8131988896667617,8.32086181640625,1.1684601306915283,8.434324264526367,1.1853431463241577,4.66650652885437,2.763263463973999,,,,,,
8521672000.0,405.46,26.399999618530273,6529777152.0,3584.0807780351756,168.0,0.03443640097975731,2768896.0,3663.0194046497345,0.0042115915566682816,0.04388427734375,2.0247950553894043,-0.01868826150894165,0.17058394849300385,-0.02024795114994049,0.0015596840530633926,0.0,0.08267806470394135,0.5779101252555847,0.8204859453474456,8.326469421386719,1.2397843599319458,8.409147262573242,1.3639907836914062,4.5713255405426025,2.7610042095184326,,,,,,
8521672000.0,407.37,26.610000610351562,6529777152.0,3588.0636002691276,169.0,0.031069865450263023,2785280.0,3667.585655927658,0.003538573393598199,0.033447265625,2.0109996795654297,-0.018284309655427933,0.1556420922279358,-0.020109999924898148,0.001825687475502491,0.0,0.06542734801769257,0.5511690378189087,0.8101619545033625,8.239279747009277,1.1735961437225342,8.304706573486328,1.2650060653686523,4.566251277923584,2.7608253955841064,,,,,,
8521672000.0,407.13,25.889999389648438,6529777152.0,3617.820509565897,170.0,0.03160589188337326,2801664.0,3672.1143493652344,0.0026079993695020676,0.02392578125,2.007650375366211,-0.019535301253199577,0.1589261144399643,-0.02007650025188923,0.0005411989986896515,0.0,0.05561511963605881,0.5708272457122803,0.7813811559500775,8.375964164733887,1.1281458139419556,8.431580543518066,1.2208514213562012,4.528693437576294,2.7554149627685547,,,,,,
8521672000.0,412.59,26.040000915527344,6529777152.0,3551.941898223478,171.0,0.03003103658556938,2818048.0,3676.7270374298096,0.004968651570379734,0.0562744140625,2.0264503955841064,-0.01850959286093712,0.19152390956878662,-0.020264506340026855,0.0017549097537994385,0.0,0.033058539032936096,0.6107900142669678,0.8165241778832306,8.365411758422852,1.3077946901321411,8.398469924926758,1.4259427785873413,4.612688064575195,2.7639827728271484,,,,,,
8521672000.0,407.99,25.440000534057617,6529777152.0,3621.9474364565276,172.0,0.03445835039019585,2834432.0,3681.2505707740784,0.006422940641641617,0.07598876953125,2.02586030960083,-0.01849665492773056,0.18045775592327118,-0.020258603617548943,0.0017619500868022442,0.0,0.04497052729129791,0.5988908410072327,0.7656473773921326,8.474393844604492,1.1106640100479126,8.519363403320312,1.237117052078247,4.523533344268799,2.7575998306274414,,,,,,
8521672000.0,397.23,24.860000610351562,6529777152.0,3635.6479870249973,173.0,0.03207723796367645,2850816.0,3685.7570576667786,0.0052948808297514915,0.05487060546875,2.041914939880371,-0.01841922104358673,0.19428029656410217,-0.020419146865606308,0.0019999220967292786,0.0,0.03513067960739136,0.63399738073349,0.7860274726618496,8.500417709350586,1.2279770374298096,8.535548210144043,1.3705960512161255,4.506486892700195,2.758429527282715,,,,,,
8521672000.0,396.95,25.309999465942383,6529777152.0,3548.201132283388,174.0,0.02930409088730812,2867200.0,3690.3746087551117,0.005068626720458269,0.0562744140625,2.060988426208496,-0.021341843530535698,0.2369956374168396,-0.020609883591532707,-0.0007319599390029907,0.0,0.00985737144947052,0.6817466020584106,0.7060816413715505,8.408349990844727,1.187563180923462,8.418207168579102,1.2575054168701172,4.61755108833313,2.760518789291382,,,,,,
8521672000.0,397.42,24.559999465942383,6529777152.0,3602.3756745528644,175.0,0.031676553189754486,2883584.0,3694.922718524933,0.004375326447188854,0.04119873046875,2.1160480976104736,-0.01950780302286148,0.19088013470172882,-0.02116047963500023,0.0016526803374290466,0.0,0.05388189107179642,0.606897234916687,0.7229525960938523,8.342292785644531,1.0462039709091187,8.396174430847168,1.1530243158340454,4.548109769821167,2.7545149326324463,,,,,,
8521672000.0,403.77,25.90999984741211,6529777152.0,3582.577381471542,176.0,0.03349950164556503,2899968.0,3699.495962381363,0.005785051733255386,0.0537109375,2.093451499938965,-0.018793519586324692,0.12188027799129486,-0.020934512838721275,0.0021409885957837105,0.0,0.090282142162323,0.4875679910182953,0.8007659182588094,8.41755199432373,1.0658292770385742,8.507833480834961,1.0923231840133667,4.573243856430054,2.7853434085845947,,,,,,
8521672000.0,414.68,26.93000030517578,6529777152.0,3606.233685617258,177.0,0.03344525396823883,2916352.0,3704.039206504822,0.005608678795397282,0.06817626953125,2.112436294555664,-0.018978219479322433,0.13881079852581024,-0.02112436294555664,0.002146143466234207,0.0,0.0894772857427597,0.5227572321891785,0.7792677242403673,8.47542953491211,1.0696510076522827,8.56490707397461,1.1126726865768433,4.543244123458862,2.762113571166992,,,,,,
8521672000.0,415.13,26.799999237060547,6529777152.0,3527.626331179593,178.0,0.03234592825174332,2932736.0,3708.68368935585,0.0035429205745458603,0.02923583984375,2.1241610050201416,-0.020047612488269806,0.17251229286193848,-0.021241609007120132,0.0011939951218664646,0.0,0.0341293066740036,0.5778892636299133,0.7507829907970676,8.510421752929688,1.029573678970337,8.544550895690918,1.1575919389724731,4.644482851028442,2.8377578258514404,,,,,,
8521672000.0,413.81,26.18000030517578,6529777152.0,3574.123912262079,179.0,0.02947612665593624,2949120.0,3713.267749786377,0.003944828175008297,0.0362548828125,2.1581339836120605,-0.019781500101089478,0.12563180923461914,-0.021581340581178665,0.0017998404800891876,0.0,0.07949578016996384,0.4996080994606018,0.7287856196728948,8.707317352294922,0.8806918263435364,8.786811828613281,0.9593362212181091,4.584060430526733,2.7596704959869385,,,,,,
8521672000.0,407.89,25.260000228881836,6529777152.0,3552.7533730863543,180.0,0.032737016677856445,2965504.0,3717.879384279251,0.004974748939275742,0.05609130859375,2.135502338409424,-0.02092045359313488,0.16462861001491547,-0.021355019882321358,0.00043456756975501776,0.0,0.002580320695415139,0.5743507742881775,0.7179841946204375,8.734977722167969,0.9507229924201965,8.737558364868164,1.0815331935882568,4.6116344928741455,2.7661354541778564,,,,,,
8521672000.0,405.69,26.479999542236328,6529777152.0,3599.433092094753,181.0,0.034984998404979706,2981888.0,3722.4312121868134,0.009076879359781742,0.09149169921875,2.1087563037872314,-0.017713582143187523,0.16435259580612183,-0.021087560802698135,0.0033739786595106125,0.0,0.036590538918972015,0.5697704553604126,0.7260281946885654,8.86982536315918,0.9565982222557068,8.906417846679688,1.088550329208374,4.551827907562256,2.765679359436035,,,,,,
8521672000.0,400.26,26.100000381469727,6529777152.0,3532.944689458378,182.0,0.03052642196416855,2998272.0,3727.0687034130096,0.005593794863671064,0.06317138671875,2.136887311935425,-0.01775956153869629,0.1597088873386383,-0.021368874236941338,0.0036093108355998993,0.0,0.041060831397771835,0.5550796985626221,0.7490819786079114,8.85624885559082,1.0031256675720215,8.897310256958008,1.108124852180481,4.637491226196289,2.7731921672821045,,,,,,
8521672000.0,409.79,27.209999084472656,6529777152.0,3580.0075651678867,183.0,0.03763560950756073,3014656.0,3731.6452300548553,0.00521712563931942,0.05145263671875,2.1384599208831787,-0.01964065432548523,0.1472090184688568,-0.021384598687291145,0.0017439480870962143,0.0,0.05610060691833496,0.5406178832054138,0.7415479133101079,8.900382995605469,0.9813234210014343,8.956483840942383,1.0634127855300903,4.576526641845703,2.7715275287628174,,,,,,
