CpuMaxMemory,EpLenMean,EpRewMean,GpuMaxMemory,IPS_total,Iter,Misc/FrameRewMean,Misc/InteractCount,Misc/TimeElapsed,Opt/approxkl,Opt/clipfrac,Opt/entropy,Opt/loss_pi,Opt/loss_vf,Opt/negent,Opt/pg,Opt/pi_kl,VFStats/AdvMean,VFStats/AdvStd,VFStats/EV,VFStats/VpredMean,VFStats/VpredStd,VFStats/VtargMean,VFStats/VtargStd,del_time,wait_optimization,scaled/pol_distance,scaled/vf_aux,scaled/vf_true,unscaled/pol_distance,unscaled/vf_aux,unscaled/vf_true
2364492000.0,82.82,-1.9199999570846558,6317166080.0,3576.645262113831,0.0,-0.012187059968709946,16384.0,4.580828905105591,0.0038176614325493574,0.0228271484375,2.7051589488983154,-0.027455376461148262,0.17332547903060913,-0.027051586657762527,-0.00040378887206315994,0.0,-0.1954466700553894,0.577619194984436,-0.006682900951184401,0.08822936564683914,0.01628926955163479,-0.10721729695796967,0.5756986737251282,4.580828905105591,2.714533805847168,,,,,,
2563608000.0,81.13,-2.4600000381469727,6519754752.0,3615.2466896461747,1.0,-0.012153472751379013,32768.0,9.112746477127075,0.0028357389383018017,0.00958251953125,2.700151205062866,-0.02713773399591446,0.16427022218704224,-0.027001511305570602,-0.00013622455298900604,0.0,-0.16793584823608398,0.5633964538574219,0.0012193558452179287,-0.05146970599889755,0.030070744454860687,-0.21940556168556213,0.5637403130531311,4.531917572021484,2.7190630435943604,,,,,,
2761608000.0,80.49,-2.180000066757202,6519754752.0,3669.2882843250195,2.0,-0.014408762566745281,49152.0,13.577917575836182,0.0004339388106018305,0.0,2.699216604232788,-0.02658264711499214,0.17919549345970154,-0.02699216455221176,0.0004095211625099182,0.0,-0.15064460039138794,0.6003546714782715,0.04373590160862162,-0.2927979826927185,0.08484610170125961,-0.44344261288642883,0.6139301657676697,4.4651710987091064,2.728872537612915,,,,,,
2959608000.0,80.77,-2.059999942779541,6519754752.0,3569.1491418135756,3.0,-0.009959883987903595,65536.0,18.168367385864258,0.002719742013141513,0.02093505859375,2.6854631900787354,-0.027578551322221756,0.1506713181734085,-0.026854630559682846,-0.0007239205297082663,0.0,-0.02083691582083702,0.5471393465995789,0.04851004425048311,-0.5373997092247009,0.14418871700763702,-0.5582365989685059,0.5609134435653687,4.590449810028076,2.7333412170410156,,,,,,
3157344000.0,81.71,-1.909999966621399,6519754752.0,3595.5237656931263,4.0,-0.011405148543417454,81920.0,22.725144386291504,0.0021318085491657257,0.0074462890625,2.6804680824279785,-0.027323544025421143,0.16474828124046326,-0.02680468186736107,-0.0005188621580600739,0.0,-0.030889932066202164,0.5716317892074585,0.07164293788703946,-0.6076490879058838,0.14651937782764435,-0.6385390162467957,0.5932788848876953,4.556777000427246,2.7343292236328125,,,,,,
3355344000.0,80.16,-1.7200000286102295,6519754752.0,3480.24410796314,5.0,-0.011918187141418457,98304.0,27.432860136032104,0.0018447042675688863,0.00701904296875,2.673170566558838,-0.026503417640924454,0.1815388798713684,-0.02673170529305935,0.0002282857894897461,0.0,-0.0552247054874897,0.603035032749176,0.08157401542036335,-0.5662765502929688,0.1435452550649643,-0.6215013265609741,0.6292459964752197,4.707715749740601,2.743009090423584,,,,,,
3553080000.0,83.01,-2.4200000762939453,6519754752.0,3519.244799549009,6.0,-0.013402018696069717,114688.0,32.088404417037964,0.002735130488872528,0.0169677734375,2.6945669651031494,-0.027512384578585625,0.1847270280122757,-0.026945671066641808,-0.0005667144432663918,0.0,-0.030552886426448822,0.5992090106010437,0.12098504923466369,-0.7032688856124878,0.17510345578193665,-0.7338217496871948,0.6391167044639587,4.655544281005859,2.7454826831817627,,,,,,
3751872000.0,83.5,-1.8300000429153442,6519754752.0,3606.7683862874155,7.0,-0.011743549257516861,131072.0,36.630975008010864,0.00034172795130871236,0.0,2.6950626373291016,-0.026848942041397095,0.15850603580474854,-0.026950625702738762,0.00010168366134166718,0.0,-0.04916336387395859,0.5686737298965454,0.1040816600712583,-0.5217081904411316,0.11456572264432907,-0.5708715915679932,0.6007987260818481,4.5425705909729,2.7426931858062744,,,,,,
3948816000.0,85.36,-2.6700000762939453,6519754752.0,3603.941664788288,8.0,-0.01270701177418232,147456.0,41.17710852622986,0.0006629055133089423,0.0,2.7021660804748535,-0.026253152638673782,0.17045703530311584,-0.027021659538149834,0.0007685045711696148,0.0,-0.015283329412341118,0.5863034129142761,0.1488338354008788,-0.6586928367614746,0.17536912858486176,-0.6739761829376221,0.6354995369911194,4.546133518218994,2.7499406337738037,,,,,,
4146816000.0,84.43,-2.809999942779541,6519754752.0,3632.358958450138,9.0,-0.014955449849367142,163840.0,45.68767595291138,0.00047155041829682887,0.0,2.7009973526000977,-0.027628831565380096,0.17368406057357788,-0.027009975165128708,-0.0006188566330820322,0.0,-0.027975032106041908,0.5920100808143616,0.2761316481239857,-0.8046519756317139,0.2713749408721924,-0.8326269388198853,0.6958238482475281,4.5105674266815186,2.749359607696533,,,,,,
4344552000.0,85.56,-1.909999966621399,6519754752.0,3590.295133493435,10.0,-0.011160293594002724,180224.0,50.251089096069336,0.003569426480680704,0.02587890625,2.67523193359375,-0.02668936550617218,0.16724026203155518,-0.026752319186925888,6.29541464149952e-05,0.0,0.03345412388443947,0.5382764935493469,0.38820749229870455,-0.7704801559448242,0.3685382902622223,-0.737026035785675,0.68818199634552,4.563413143157959,2.7557897567749023,,,,,,
4542552000.0,82.13,-2.1700000762939453,6519754752.0,3510.9718827357115,11.0,-0.012417812831699848,196608.0,54.91760325431824,0.002008758718147874,0.00677490234375,2.6975924968719482,-0.025461573153734207,0.13731470704078674,-0.026975926011800766,0.001514354720711708,0.0,-0.030263390392065048,0.5287219882011414,0.28273378532095894,-0.5878732204437256,0.2634103000164032,-0.6181365847587585,0.624291181564331,4.666514158248901,2.7521467208862305,,,,,,
4740288000.0,80.19,-1.7999999523162842,6519754752.0,3532.979199992103,12.0,-0.011429114267230034,212992.0,59.5550491809845,0.0007277004770003259,0.002197265625,2.6938252449035645,-0.027609124779701233,0.15396983921527863,-0.02693825028836727,-0.0006708744913339615,0.0,-0.002746740821748972,0.5407552719116211,0.35860679124300576,-0.6477508544921875,0.36075353622436523,-0.6504976749420166,0.6752095818519592,4.63744592666626,2.7565619945526123,,,,,,
4939080000.0,85.71,-1.7599999904632568,6519754752.0,3529.770245032743,13.0,-0.009812581352889538,229376.0,64.19671106338501,0.0006996752927079797,0.00103759765625,2.6763508319854736,-0.02678297646343708,0.1446491926908493,-0.02676350623369217,-1.9466737285256386e-05,0.0,0.017181362956762314,0.5274699330329895,0.3681177319599416,-0.622308075428009,0.3923928737640381,-0.6051267385482788,0.6635591387748718,4.641661882400513,2.761756181716919,,,,,,
5136024000.0,85.44,-2.299999952316284,6519754752.0,3603.0664014750455,14.0,-0.010630384087562561,245760.0,68.7439489364624,0.0007221676642075181,0.0,2.671049118041992,-0.026450911536812782,0.1338578760623932,-0.026710491627454758,0.0002595784608274698,0.0,-0.003183993510901928,0.5133874416351318,0.3387060827387518,-0.550921618938446,0.3210751712322235,-0.5541056394577026,0.6313177943229675,4.547237873077393,2.772017478942871,,,,,,
5333760000.0,88.31,-2.2100000381469727,6519754752.0,3497.769454416596,15.0,-0.011758637614548206,262144.0,73.42807698249817,0.0009206040995195508,0.00384521484375,2.676453113555908,-0.025994369760155678,0.14156867563724518,-0.026764528825879097,0.0007701627910137177,0.0,-0.010580900125205517,0.5337669849395752,0.3609775638242846,-0.5143914222717285,0.34050458669662476,-0.5249723196029663,0.6677189469337463,4.684128046035767,2.7582826614379883,,,,,,
5531760000.0,84.53,-2.619999885559082,6519754752.0,3556.75703769156,16.0,-0.01421910710632801,278528.0,78.03452038764954,0.0023692429531365633,0.0191650390625,2.6569631099700928,-0.026503004133701324,0.14891548454761505,-0.026569632813334465,6.662763189524412e-05,0.0,-0.11825023591518402,0.5473592281341553,0.3578374510031084,-0.33321091532707214,0.31187453866004944,-0.45146113634109497,0.6830459833145142,4.606443405151367,2.75362491607666,,,,,,
5729496000.0,79.16,-1.5299999713897705,6519754752.0,3494.008621196347,17.0,-0.01340576633810997,294912.0,82.72369027137756,0.001068532932549715,0.0020751953125,2.6744630336761475,-0.026272058486938477,0.15662981569766998,-0.02674463391304016,0.00047257309779524803,0.0,-0.058126747608184814,0.5497564673423767,0.36703939372974614,-0.39876654744148254,0.36230993270874023,-0.45689332485198975,0.6910063624382019,4.689169883728027,2.7666308879852295,,,,,,
5927496000.0,80.7,-2.4100000858306885,6519754752.0,3617.203319219887,18.0,-0.013128688558936119,311296.0,87.25315642356873,0.002231140621006489,0.01300048828125,2.652756929397583,-0.02706967294216156,0.13523150980472565,-0.026527568697929382,-0.0005421040114015341,0.0,-0.09598509222269058,0.5047418475151062,0.38792530341933196,-0.2906453609466553,0.3500547707080841,-0.38663047552108765,0.6451594829559326,4.529466152191162,2.761841058731079,,,,,,
6126288000.0,79.44,-1.7100000381469727,6519754752.0,3461.627089755405,19.0,-0.009983893483877182,327680.0,91.98619079589844,0.0030623157508671284,0.02923583984375,2.6156091690063477,-0.026296250522136688,0.11238051950931549,-0.026156090199947357,-0.0001401631161570549,0.0,-0.06604517251253128,0.4744891822338104,0.3382399294904842,-0.23047056794166565,0.2708865702152252,-0.2965157628059387,0.5832785964012146,4.733034372329712,2.780701160430908,,,,,,
6323232000.0,80.41,-1.309999942779541,6519754752.0,3559.0974312930225,20.0,-0.009655211120843887,344064.0,96.58960509300232,0.001953756669536233,0.01458740234375,2.6364212036132812,-0.026915214955806732,0.09661383926868439,-0.02636421099305153,-0.0005510002374649048,0.0,-0.014514366164803505,0.4403701424598694,0.33100691072055277,-0.35472917556762695,0.3042466938495636,-0.3692435324192047,0.5384024977684021,4.603414297103882,2.771681785583496,,,,,,
6520968000.0,77.77,-1.940000057220459,6519754752.0,3562.0416135881105,21.0,-0.01169532909989357,360448.0,101.18921446800232,0.0013549558352679014,0.00177001953125,2.6286191940307617,-0.02642584592103958,0.13803039491176605,-0.026286186650395393,-0.0001396574079990387,0.0,-0.05118471011519432,0.5208606719970703,0.41722957142904915,-0.4208131432533264,0.35713592171669006,-0.47199785709381104,0.6822959184646606,4.599609375,2.7663938999176025,,,,,,
6718704000.0,83.36,-1.25,6519754752.0,3444.4570177662054,22.0,-0.00889554712921381,376832.0,105.94584226608276,0.003435669234022498,0.0316162109375,2.59684419631958,-0.02606819011271,0.09868372976779938,-0.025968443602323532,-9.974651038646698e-05,0.0,-0.004584477748721838,0.44350913166999817,0.4846308516643203,-0.3295868933200836,0.3714940845966339,-0.3341713547706604,0.6177935600280762,4.756627798080444,2.7654433250427246,,,,,,
6916704000.0,82.79,-1.8899999856948853,6519754752.0,3582.2104124681887,23.0,-0.009562570601701736,393216.0,110.51955461502075,0.00517684780061245,0.04180908203125,2.589778423309326,-0.02653554454445839,0.12016800045967102,-0.025897786021232605,-0.000637758756056428,0.0,-0.039834894239902496,0.4787716567516327,0.45212242879575126,-0.25087404251098633,0.4158419966697693,-0.2907089591026306,0.646824836730957,4.573712348937988,2.773817300796509,,,,,,
7114440000.0,89.61,-2.259999990463257,6519754752.0,3513.6623160733075,24.0,-0.010535202920436859,409600.0,115.18249559402466,0.0022173698525875807,0.02105712890625,2.5800023078918457,-0.02492894046008587,0.1248662918806076,-0.02580002136528492,0.0008710818365216255,0.0,-0.054402705281972885,0.46454939246177673,0.5227639510130255,-0.321723997592926,0.4145517647266388,-0.3761267066001892,0.6724581122398376,4.662940979003906,2.7826006412506104,,,,,,
7313232000.0,79.86,-1.0800000429153442,6519754752.0,3489.1227717006227,25.0,-0.009095600806176662,425984.0,119.87823176383972,0.0019156704656779766,0.01220703125,2.5350990295410156,-0.024843987077474594,0.0838521420955658,-0.025350987911224365,0.0005070026963949203,0.0,-0.060990236699581146,0.41365787386894226,0.390119894394779,-0.15376320481300354,0.2720266282558441,-0.2147534340620041,0.529686689376831,4.6957361698150635,2.770914316177368,,,,,,
7510176000.0,78.68,-1.7400000095367432,6519754752.0,3485.1100549537878,26.0,-0.010195530951023102,442368.0,124.57937455177307,0.0015620053745806217,0.00457763671875,2.552675724029541,-0.025223147124052048,0.09541311860084534,-0.025526752695441246,0.0003036102280020714,0.0,-0.05067760497331619,0.4414811134338379,0.4402888640270982,-0.2676841616630554,0.3011190891265869,-0.318361759185791,0.590106189250946,4.70114278793335,2.7806005477905273,,,,,,
7708176000.0,83.73,-2.0399999618530273,6519754752.0,3363.4188383038763,27.0,-0.011062519624829292,458752.0,129.45060849189758,0.001679066801443696,0.00433349609375,2.538034439086914,-0.024901363998651505,0.10261227190494537,-0.025380345061421394,0.00047897547483444214,0.0,-0.06471604108810425,0.46426206827163696,0.49868382353473883,-0.2468712329864502,0.3707444667816162,-0.31158727407455444,0.6557033658027649,4.871233940124512,2.8941237926483154,,,,,,
7905912000.0,71.92,-1.809999942779541,6519754752.0,3473.5712509849736,28.0,-0.011086847633123398,475136.0,134.16736793518066,0.0009534901473671198,0.00274658203125,2.528709888458252,-0.025096727535128593,0.10890766233205795,-0.025287099182605743,0.00019037257879972458,0.0,-0.010180968791246414,0.4676082134246826,0.6214288886329202,-0.44147253036499023,0.554275631904602,-0.45165351033210754,0.759990930557251,4.716759443283081,2.8087713718414307,,,,,,
8103912000.0,80.8,-1.5399999618530273,6519754752.0,3516.5953006629998,29.0,-0.010453011840581894,491520.0,138.82641983032227,0.0026925308629870415,0.01629638671875,2.547128200531006,-0.025042301043868065,0.09518533200025558,-0.025471283122897148,0.0004289813805371523,0.0,-0.013185754418373108,0.4234737157821655,0.5998790057389619,-0.3141312003135681,0.5248807072639465,-0.3273169696331024,0.6694693565368652,4.659051895141602,2.787752628326416,,,,,,
8301648000.0,77.18,-1.4299999475479126,6519754752.0,3425.6994789228147,30.0,-0.010484203696250916,507904.0,143.60909271240234,0.002817092463374138,0.01763916015625,2.54715895652771,-0.02548043243587017,0.08516857028007507,-0.025471588596701622,-8.845701813697815e-06,0.0,-0.07635892927646637,0.4057903587818146,0.604707390854389,-0.19603997468948364,0.3985291123390198,-0.2723988890647888,0.6454198956489563,4.782672882080078,2.931638717651367,,,,,,
8500440000.0,76.21,-0.8299999833106995,6519754752.0,3494.4544048792554,31.0,-0.007509523071348667,524288.0,148.2976644039154,0.0026261997409164906,0.0252685546875,2.5252275466918945,-0.02525121346116066,0.07861439883708954,-0.025252273306250572,1.055654138326645e-06,0.0,-0.003929655067622662,0.3949909806251526,0.6313767610810039,-0.21316464245319366,0.46084341406822205,-0.2170943021774292,0.650572657585144,4.6885716915130615,2.776712417602539,,,,,,
,,,,,,,,,,,,,,,,,,,,,,,,,,0.0012841023271903396,0.1601686179637909,0.12535347044467926,0.0012841023271903396,0.1601686179637909,0.12535347044467926
,,,,,,,,,,,,,,,,,,,,,,,,,,0.0006630095303989947,0.10981881618499756,0.10312008112668991,0.0006630095303989947,0.10981881618499756,0.10312008112668991
,,,,,,,,,,,,,,,,,,,,,,,,,,0.0009532853728160262,0.10287778079509735,0.10039966553449631,0.0009532853728160262,0.10287778079509735,0.10039966553449631
,,,,,,,,,,,,,,,,,,,,,,,,,,0.0006751954206265509,0.09730490297079086,0.09479214251041412,0.0006751954206265509,0.09730490297079086,0.09479214251041412
,,,,,,,,,,,,,,,,,,,,,,,,,,0.0005660641472786665,0.09395166486501694,0.09239782392978668,0.0005660641472786665,0.09395166486501694,0.09239782392978668
,,,,,,,,,,,,,,,,,,,,,,,,,,0.0009669059072621167,0.09330911189317703,0.09190245717763901,0.0009669059072621167,0.09330911189317703,0.09190245717763901
8512628000.0,76.82,-1.3300000429153442,6327188480.0,27.94595811600087,32.0,-0.008818565867841244,540672.0,734.5720705986023,0.0012166504748165607,0.01080322265625,2.5271596908569336,-0.02544516883790493,0.057471878826618195,-0.025271596387028694,-0.00017357338219881058,0.0,0.017399700358510017,0.3602352738380432,0.7371302832414525,-0.3699662685394287,0.5229170322418213,-0.35256657004356384,0.702612578868866,586.2744061946869,2.828488826751709,,,,,,
8512628000.0,73.91,-1.159999966621399,6529777152.0,3600.9380292815295,33.0,-0.007318191230297089,557056.0,739.1219961643219,0.0014388137497007847,0.01043701171875,2.5128164291381836,-0.02532467432320118,0.04792113974690437,-0.025128163397312164,-0.0001965109258890152,0.0,0.05545658990740776,0.3354859948158264,0.77704649859658,-0.3308068811893463,0.6108673810958862,-0.27535027265548706,0.7105050683021545,4.5499255657196045,2.7961220741271973,,,,,,
8512628000.0,74.74,-1.309999942779541,6529777152.0,3574.4825328085585,34.0,-0.007560100872069597,573440.0,743.7055966854095,0.003032114589586854,0.026123046875,2.5322623252868652,-0.023370621725916862,0.04733463004231453,-0.025322627276182175,0.0019519994966685772,0.0,0.052275508642196655,0.3174419403076172,0.8074068539304117,-0.2991887927055359,0.6597344279289246,-0.24691328406333923,0.7233423590660095,4.5836005210876465,2.781588077545166,,,,,,
8512628000.0,74.58,-1.399999976158142,6529777152.0,3465.181854652869,35.0,-0.006982838734984398,589824.0,748.4337756633759,0.0015728636644780636,0.01629638671875,2.509026050567627,-0.027214661240577698,0.04299718886613846,-0.025090258568525314,-0.002124398946762085,0.0,0.03820192068815231,0.29785484075546265,0.8184315368104581,-0.29549700021743774,0.6569364070892334,-0.25729507207870483,0.6990118026733398,4.728178977966309,2.898085594177246,,,,,,
8512628000.0,74.34,-0.5600000023841858,6529777152.0,3549.6580244163783,36.0,-0.005221318919211626,606208.0,753.0494315624237,0.0033911040518432856,0.03369140625,2.532834053039551,-0.02703338861465454,0.04491608217358589,-0.025328340008854866,-0.0017050448805093765,0.0,0.03013675846159458,0.2880789041519165,0.7861370533410412,-0.19196869432926178,0.566441535949707,-0.16183194518089294,0.6229363083839417,4.615655899047852,2.77931547164917,,,,,,
8512628000.0,76.35,-0.7200000286102295,6529777152.0,3572.0546522285667,37.0,-0.004456068389117718,622592.0,757.6361474990845,0.003347158432006836,0.0360107421875,2.5683116912841797,-0.025885865092277527,0.0360422283411026,-0.025683119893074036,-0.00020274706184864044,0.0,0.04201384261250496,0.26674583554267883,0.8140892341973045,-0.21576069295406342,0.5936352014541626,-0.17374685406684875,0.6186504364013672,4.586715936660767,2.7690589427948,,,,,,
8512628000.0,77.01,-0.3499999940395355,6529777152.0,3639.9863349041752,38.0,-0.003559205448254943,638976.0,762.1372632980347,0.004408734384924173,0.0465087890625,2.5525660514831543,-0.028118012472987175,0.04108331725001335,-0.025525659322738647,-0.002592353615909815,0.0,0.008706438355147839,0.2736879289150238,0.7833702563721883,-0.09979824721813202,0.5215834379196167,-0.0910918116569519,0.5880260467529297,4.501115798950195,2.7719409465789795,,,,,,
8512628000.0,78.09,-0.7099999785423279,6529777152.0,3650.0798559843442,39.0,-0.002683107042685151,655360.0,766.6259322166443,0.0034574014134705067,0.03173828125,2.565589427947998,-0.025836260989308357,0.031448014080524445,-0.025655893608927727,-0.00018037017434835434,0.0,0.030598396435379982,0.24986182153224945,0.798575692991089,-0.11086343228816986,0.47022369503974915,-0.08026503771543503,0.5567291378974915,4.488668918609619,2.7818822860717773,,,,,,
8512628000.0,77.73,-0.15000000596046448,6529777152.0,3615.7970036537613,40.0,-0.0001861628843471408,671744.0,771.1571600437164,0.005100149195641279,0.053466796875,2.483417272567749,-0.024599069729447365,0.030230345204472542,-0.024834172800183296,0.00023510213941335678,0.0,0.04653417319059372,0.2548774480819702,0.7669079487293136,-0.07142215222120285,0.5117186903953552,-0.02488797903060913,0.5279195308685303,4.5312278270721436,2.778876781463623,,,,,,
8512628000.0,75.0,-0.3199999928474426,6529777152.0,3591.2542852111,41.0,-0.001779807498678565,688128.0,775.719354391098,0.0031255693174898624,0.02978515625,2.497934341430664,-0.023164117708802223,0.0262630432844162,-0.02497934177517891,0.0018152277916669846,0.0,0.007153983227908611,0.22832034528255463,0.8355477444578598,-0.04486076533794403,0.5055922865867615,-0.03770678490400314,0.5630210638046265,4.562194347381592,2.773303747177124,,,,,,
8512628000.0,79.1,-0.15000000596046448,6529777152.0,3559.253935745447,42.0,-0.00012554985005408525,704512.0,780.3225662708282,0.004715092480182648,0.0465087890625,2.4589483737945557,-0.02320585399866104,0.03086748532950878,-0.024589482694864273,0.001383630558848381,0.0,0.01638462208211422,0.248796746134758,0.8335717110458498,-0.05636774003505707,0.5368417501449585,-0.0399831160902977,0.6098613739013672,4.603211879730225,2.7696499824523926,,,,,,
8512628000.0,78.82,0.12999999523162842,6529777152.0,3545.6743416756894,43.0,0.0009470458026044071,720896.0,784.9434080123901,0.003945249132812023,0.04241943359375,2.503817081451416,-0.022782187908887863,0.02549155242741108,-0.02503817342221737,0.0022559836506843567,0.0,0.03134199231863022,0.2286776453256607,0.8203846045216977,-0.04611968249082565,0.5150077939033508,-0.014777690172195435,0.5395752191543579,4.62084174156189,2.773012638092041,,,,,,
8512628000.0,75.15,0.05000000074505806,6529777152.0,3545.7237372068284,44.0,0.001618409645743668,737280.0,789.5641853809357,0.005993134342133999,0.06878662109375,2.488861560821533,-0.02512332983314991,0.024436844512820244,-0.02488861419260502,-0.0002347175031900406,0.0,0.03950106352567673,0.22529347240924835,0.8201973424035025,0.004837228916585445,0.4861315190792084,0.04433829337358475,0.5313131213188171,4.620777368545532,2.774618625640869,,,,,,
8512628000.0,77.43,0.25,6529777152.0,3553.6986328912412,45.0,0.0016269332263618708,753664.0,794.1745932102203,0.005422666668891907,0.04119873046875,2.5055503845214844,-0.02205400913953781,0.020354360342025757,-0.025055505335330963,0.0030014915391802788,0.0,0.008385665714740753,0.20440885424613953,0.8442444304350492,0.03309101238846779,0.46487683057785034,0.04147667437791824,0.5179381370544434,4.610407829284668,2.7735257148742676,,,,,,
8512628000.0,73.54,0.41999998688697815,6529777152.0,3595.874839578911,46.0,0.003297296119853854,770048.0,798.730925321579,0.0063296835869550705,0.06121826171875,2.498842716217041,-0.025688568130135536,0.024625258520245552,-0.024988429620862007,-0.0007001394405961037,0.0,0.0377589575946331,0.2244403213262558,0.8691278930034105,0.05663385987281799,0.5450727343559265,0.0943928062915802,0.6204078793525696,4.556332111358643,2.774611711502075,,,,,,
8512628000.0,78.97,0.6800000071525574,6529777152.0,3585.4039730773347,47.0,0.005722121801227331,786432.0,803.3005638122559,0.004838993772864342,0.04876708984375,2.5164358615875244,-0.02341819368302822,0.02824292704463005,-0.02516435831785202,0.00174616277217865,0.0,0.047139398753643036,0.23615767061710358,0.7640847037612521,0.11975759267807007,0.43127188086509705,0.1668969988822937,0.48621004819869995,4.56963849067688,2.7764549255371094,,,,,,
8512628000.0,78.72,0.8600000143051147,6529777152.0,3586.070241172366,48.0,0.005743760149925947,802816.0,807.8693532943726,0.009552206844091415,0.0872802734375,2.4997785091400146,-0.024482717737555504,0.03343096002936363,-0.024997785687446594,0.0005150642246007919,0.0,0.03376425802707672,0.25156137347221375,0.8072798347735495,0.12327871471643448,0.48941493034362793,0.1570429801940918,0.5730339288711548,4.568789482116699,2.7773118019104004,,,,,,
8512628000.0,81.08,1.2599999904632568,6529777152.0,3523.3566039341713,49.0,0.006957000121474266,819200.0,812.5194644927979,0.007005046587437391,0.07379150390625,2.4890646934509277,-0.022544313222169876,0.03292778134346008,-0.02489064447581768,0.002346330787986517,0.0,0.0716642513871193,0.24866825342178345,0.8100372828477007,0.10193528234958649,0.49797138571739197,0.17359954118728638,0.5705401301383972,4.650111198425293,2.783324956893921,,,,,,
8512628000.0,80.97,1.1100000143051147,6529777152.0,3559.838967655415,50.0,0.007460399065166712,835584.0,817.1219198703766,0.009891588240861893,0.1002197265625,2.4968082904815674,-0.021204091608524323,0.035790324211120605,-0.024968082085251808,0.003763990243896842,0.0,0.056630052626132965,0.2702292799949646,0.7831385045186646,0.142142191529274,0.5089914798736572,0.19877225160598755,0.5802848935127258,4.602455377578735,2.7792084217071533,,,,,,
8512628000.0,79.1,1.0700000524520874,6529777152.0,3538.2980551724345,51.0,0.007091690320521593,851968.0,821.7523946762085,0.00874060858041048,0.09637451171875,2.510484457015991,-0.022471046075224876,0.03417428582906723,-0.025104844942688942,0.0026337984018027782,0.0,0.02492113970220089,0.25846150517463684,0.7963788836510515,0.24743518233299255,0.5047771334648132,0.2723563313484192,0.5727755427360535,4.630474805831909,2.8050496578216553,,,,,,
8512628000.0,79.45,1.4800000190734863,6529777152.0,3557.9882848512316,52.0,0.009067840874195099,868352.0,826.35724401474,0.005250214599072933,0.05816650390625,2.510155200958252,-0.02428382821381092,0.03117813542485237,-0.025101549923419952,0.0008177226409316063,0.0,0.04450276866555214,0.24560318887233734,0.7866753834688389,0.2681347131729126,0.44122564792633057,0.3126375079154968,0.5317573547363281,4.604849338531494,2.7769036293029785,,,,,,
8512628000.0,89.35,1.309999942779541,6529777152.0,3563.1654826604167,53.0,0.009182010777294636,884736.0,830.9554026126862,0.006428289692848921,0.0684814453125,2.46327543258667,-0.02257046103477478,0.032592710107564926,-0.024632751941680908,0.002062292769551277,0.0,0.03798266500234604,0.24906720221042633,0.8411610406668458,0.3142079710960388,0.5539575219154358,0.35219064354896545,0.6249396204948425,4.598158597946167,2.7759294509887695,,,,,,
8512628000.0,84.19,1.2699999809265137,6529777152.0,3448.9752664130338,54.0,0.009040339849889278,901120.0,835.7057991027832,0.007070610299706459,0.06793212890625,2.4941251277923584,-0.02326190285384655,0.03702026978135109,-0.024941250681877136,0.0016793431714177132,0.0,0.03453262895345688,0.26803719997406006,0.7972211795469295,0.3265551030635834,0.5192988514900208,0.36108773946762085,0.5952286124229431,4.750396490097046,2.845996141433716,,,,,,
8512628000.0,77.03,1.6399999856948853,6529777152.0,3484.8767639407033,55.0,0.011418555863201618,917504.0,840.407256603241,0.006529517471790314,0.07440185546875,2.477726697921753,-0.021701889112591743,0.029885973781347275,-0.024777265265583992,0.0030753780156373978,0.0,0.018193524330854416,0.24518103897571564,0.8422495146694154,0.5013858675956726,0.5595202445983887,0.5195794105529785,0.6173074841499329,4.701457500457764,2.8298304080963135,,,,,,
8512628000.0,83.28,1.559999942779541,6529777152.0,3605.8039579981505,56.0,0.010293938219547272,933888.0,844.951042175293,0.0030558528378605843,0.0306396484375,2.4796559810638428,-0.023541022092103958,0.03130608797073364,-0.024796558544039726,0.0012555383145809174,0.0,0.017945025116205215,0.24590522050857544,0.8272771247308256,0.43241336941719055,0.5618550181388855,0.45035839080810547,0.5916881561279297,4.543785572052002,2.774886131286621,,,,,,
8512628000.0,93.34,2.180000066757202,6529777152.0,3584.922154168581,57.0,0.012385111302137375,950272.0,849.5212948322296,0.006766807287931442,0.0699462890625,2.4610037803649902,-0.02268333174288273,0.035373084247112274,-0.024610035121440887,0.001926705241203308,0.0,0.03774454444646835,0.26054617762565613,0.7912387005531277,0.5334302186965942,0.5050463080406189,0.5711747407913208,0.5702427625656128,4.5702526569366455,2.7796335220336914,,,,,,
8512628000.0,83.04,1.4900000095367432,6529777152.0,3588.027255848341,58.0,0.01105334423482418,966656.0,854.0875923633575,0.006079838145524263,0.06182861328125,2.4492921829223633,-0.0220415610820055,0.041527535766363144,-0.02449292503297329,0.002451361157000065,0.0,-0.025253504514694214,0.2755441665649414,0.8127820818705493,0.603026270866394,0.5689011812210083,0.577772855758667,0.6368212103843689,4.56629753112793,2.788909435272217,,,,,,
8512628000.0,81.41,2.0299999713897705,6529777152.0,3520.490606847652,59.0,0.013305671513080597,983040.0,858.7414891719818,0.006553376093506813,0.07427978515625,2.4506545066833496,-0.02473444864153862,0.034370243549346924,-0.024506542831659317,-0.0002279072068631649,0.0,0.034167252480983734,0.2532672584056854,0.8279008596415893,0.5805552005767822,0.5574328899383545,0.6147223711013794,0.6105056405067444,4.653896808624268,2.7861530780792236,,,,,,
8512628000.0,90.91,1.9900000095367432,6529777152.0,3547.513881379876,60.0,0.011772893369197845,999424.0,863.3599348068237,0.005038641858845949,0.060302734375,2.4733457565307617,-0.022794153541326523,0.03841857239603996,-0.024733461439609528,0.0019393013790249825,0.0,0.04086188226938248,0.2669616937637329,0.7880409614776578,0.49008792638778687,0.48738160729408264,0.5309498310089111,0.579859733581543,4.618445634841919,2.805215358734131,,,,,,
8512628000.0,87.67,2.049999952316284,6529777152.0,3535.27839274073,61.0,0.013437137939035892,1015808.0,867.9943647384644,0.005224794615060091,0.0489501953125,2.444474220275879,-0.021785540506243706,0.03391475975513458,-0.024444740265607834,0.002659202553331852,0.0,0.04726041108369827,0.26106491684913635,0.7869637962905071,0.5039382576942444,0.4686565697193146,0.5511987209320068,0.5656161308288574,4.634429931640625,2.796766996383667,,,,,,
8512628000.0,90.82,2.240000009536743,6529777152.0,3376.8701667072073,62.0,0.013615562580525875,1032192.0,872.8461947441101,0.007105134427547455,0.07354736328125,2.431382417678833,-0.021647199988365173,0.03140290454030037,-0.024313826113939285,0.0026666270568966866,0.0,0.07667768746614456,0.24882657825946808,0.7992611745020446,0.4788537621498108,0.46749359369277954,0.5555315017700195,0.5553683638572693,4.851830005645752,2.9651174545288086,,,,,,
8512760000.0,95.8,2.2100000381469727,6529777152.0,3515.06095065936,63.0,0.013459782116115093,1048576.0,877.5072803497314,0.009264922700822353,0.088623046875,2.4122142791748047,-0.020052338019013405,0.03393635153770447,-0.024122139438986778,0.004069804213941097,0.0,0.05403978377580643,0.25791308283805847,0.8161110444633717,0.5119880437850952,0.5119962096214294,0.5660277605056763,0.6014444231987,4.661085605621338,2.782794237136841,,,,,,
,,,,,,,,,,,,,,,,,,,,,,,,,,0.03363445773720741,0.1160479187965393,0.09257909655570984,0.03363445773720741,0.1160479187965393,0.09257909655570984
,,,,,,,,,,,,,,,,,,,,,,,,,,0.011380267329514027,0.0869956836104393,0.08057999610900879,0.011380267329514027,0.0869956836104393,0.08057999610900879
,,,,,,,,,,,,,,,,,,,,,,,,,,0.008515425957739353,0.07701663672924042,0.07353078573942184,0.008515425957739353,0.07701663672924042,0.07353078573942184
,,,,,,,,,,,,,,,,,,,,,,,,,,0.007721506990492344,0.07214482873678207,0.06940815597772598,0.007721506990492344,0.07214482873678207,0.06940815597772598
,,,,,,,,,,,,,,,,,,,,,,,,,,0.00795980729162693,0.0690113976597786,0.06689612567424774,0.00795980729162693,0.0690113976597786,0.06689612567424774
,,,,,,,,,,,,,,,,,,,,,,,,,,0.006961361039429903,0.06623252481222153,0.06437269598245621,0.006961361039429903,0.06623252481222153,0.06437269598245621
8513552000.0,103.32,2.509999990463257,6327188480.0,28.064240167075535,64.0,0.012996760196983814,1064960.0,1461.3107221126556,0.004254807718098164,0.05352783203125,2.425903797149658,-0.022591250017285347,0.037186529487371445,-0.024259038269519806,0.0016677901148796082,0.0,0.14062392711639404,0.27386730909347534,0.6764219687958726,0.27114439010620117,0.40594345331192017,0.4117683172225952,0.4814494550228119,583.8034417629242,2.792205333709717,,,,,,
8513552000.0,92.94,2.25,6529777152.0,3404.583070205247,65.0,0.013635043054819107,1081344.0,1466.123058795929,0.005241967737674713,0.05548095703125,2.424276113510132,-0.022690944373607635,0.03720742464065552,-0.024242762476205826,0.0015518153086304665,0.0,0.08834048360586166,0.2887348234653473,0.7458102244737583,0.5024425983428955,0.4898602366447449,0.5907831192016602,0.5726906657218933,4.812336683273315,2.7809083461761475,,,,,,
8513552000.0,110.58,3.309999942779541,6529777152.0,3503.636056319645,66.0,0.014339614659547806,1097728.0,1470.799343585968,0.006621597800403833,0.075439453125,2.403869390487671,-0.0208765659481287,0.0523592047393322,-0.024038689211010933,0.003162125824019313,0.0,0.08722762763500214,0.32905274629592896,0.7320423059238911,0.6605890989303589,0.5566004514694214,0.747816801071167,0.635671079158783,4.6762847900390625,2.794619560241699,,,,,,
8513552000.0,126.47,3.25,6529777152.0,3461.790834304996,67.0,0.015038259327411652,1114112.0,1475.532154083252,0.00622318871319294,0.06964111328125,2.411263942718506,-0.0222596675157547,0.13207288086414337,-0.02411263808608055,0.0018529705703258514,0.0,0.08122600615024567,0.5317603945732117,0.5493795400676212,0.7751353979110718,0.6146912574768066,0.8563613891601562,0.7921556830406189,4.7328104972839355,2.773883819580078,,,,,,
8513552000.0,124.98,3.380000114440918,6529777152.0,3481.722980418098,68.0,0.015342329628765583,1130496.0,1480.2378702163696,0.0050281030125916,0.05517578125,2.423029899597168,-0.022377002984285355,0.09553436934947968,-0.02423029951751232,0.0018532946705818176,0.0,0.06420030444860458,0.445833295583725,0.6674213808817653,0.8828874230384827,0.5939131379127502,0.9470877647399902,0.7730816602706909,4.705716133117676,2.762561798095703,,,,,,
8513552000.0,134.66,3.5199999809265137,6529777152.0,3548.7116140166295,69.0,0.014595848508179188,1146880.0,1484.8547570705414,0.004387283697724342,0.04571533203125,2.4065589904785156,-0.023578178137540817,0.08091677725315094,-0.024065589532256126,0.000487414188683033,0.0,0.06504097580909729,0.40067484974861145,0.71214904730374,0.9766231775283813,0.6101192831993103,1.0416641235351562,0.7468066811561584,4.616886854171753,2.7589800357818604,,,,,,
8513552000.0,127.85,3.4700000286102295,6529777152.0,3543.153156848727,70.0,0.013936949893832207,1163264.0,1489.4788868427277,0.005045396275818348,0.0531005859375,2.3926331996917725,-0.02319210208952427,0.06845030933618546,-0.023926332592964172,0.0007342314347624779,0.0,0.06277921795845032,0.371493399143219,0.7309104642862236,0.9077328443527222,0.5992646813392639,0.9705120325088501,0.7161476612091064,4.624129772186279,2.763082504272461,,,,,,
8513552000.0,142.88,3.740000009536743,6529777152.0,3540.007214828663,71.0,0.01385253481566906,1179648.0,1494.1071259975433,0.0067342789843678474,0.06689453125,2.4140703678131104,-0.020182201638817787,0.09520788490772247,-0.024140702560544014,0.003958500921726227,0.0,0.08548802137374878,0.4403422474861145,0.6962483223406485,1.0066325664520264,0.6057758927345276,1.0921205282211304,0.7989709973335266,4.628239154815674,2.768890619277954,,,,,,
8513552000.0,122.4,4.25,6529777152.0,3631.9456328692313,72.0,0.01750009134411812,1196032.0,1498.6182067394257,0.0054449462331831455,0.0540771484375,2.408616065979004,-0.02251099981367588,0.12257181853055954,-0.024086158722639084,0.0015751584433019161,0.0,0.10312319546937943,0.5452555418014526,0.7405849624089247,1.0603817701339722,0.7418825626373291,1.163504958152771,1.070539116859436,4.511080741882324,2.7639126777648926,,,,,,
8513552000.0,148.54,4.179999828338623,6529777152.0,3562.242140380572,73.0,0.014702854678034782,1212416.0,1503.2175571918488,0.005587479565292597,0.0548095703125,2.3964695930480957,-0.020938482135534286,0.10044602304697037,-0.02396469935774803,0.003026217222213745,0.0,0.12220314145088196,0.4546220302581787,0.7845343131652022,1.026907205581665,0.8360817432403564,1.1491104364395142,0.9794028401374817,4.599350452423096,2.772962808609009,,,,,,
8513552000.0,146.1,3.690000057220459,6529777152.0,3515.6612202834326,74.0,0.014311441220343113,1228800.0,1507.877846956253,0.011483761481940746,0.1173095703125,2.3952229022979736,-0.021528642624616623,0.16281333565711975,-0.02395222894847393,0.0024235835298895836,0.0,0.04653201997280121,0.5763022303581238,0.7156524790262627,1.2736120223999023,1.0430257320404053,1.3201439380645752,1.0807509422302246,4.660289764404297,2.7566542625427246,,,,,,
8513552000.0,141.76,4.380000114440918,6529777152.0,3547.2139336780538,75.0,0.016691934317350388,1245184.0,1512.4966831207275,0.00870474148541689,0.099853515625,2.400519609451294,-0.020577669143676758,0.16737326979637146,-0.02400519698858261,0.003427524119615555,0.0,0.11386920511722565,0.5301070809364319,0.6955160819893693,1.1006255149841309,0.6593002676963806,1.2144949436187744,0.9606860876083374,4.618836164474487,2.7603657245635986,,,,,,
8513552000.0,157.7,4.809999942779541,6529777152.0,3609.7870695833253,76.0,0.014904799871146679,1261568.0,1517.0354549884796,0.00566084822639823,0.06219482421875,2.3746871948242188,-0.022990932688117027,0.1537279337644577,-0.023746872320771217,0.0007559396326541901,0.0,0.0754077360033989,0.5125518441200256,0.7426691153410958,1.5179920196533203,0.8377519845962524,1.5933997631072998,1.0103965997695923,4.538771867752075,2.7586944103240967,,,,,,
8513552000.0,192.96,6.050000190734863,6529777152.0,3599.801524123149,77.0,0.015259889885783195,1277952.0,1521.5868170261383,0.005046251229941845,0.04833984375,2.381732702255249,-0.02223668061196804,0.18335101008415222,-0.02381732687354088,0.0015806443989276886,0.0,0.06807663291692734,0.5884935855865479,0.7523437692246212,1.7838857173919678,1.046791672706604,1.8519625663757324,1.1825436353683472,4.551362037658691,2.7624568939208984,,,,,,
8513552000.0,199.72,7.0,6529777152.0,3535.8623003717316,78.0,0.019747760146856308,1294336.0,1526.22048163414,0.006258667912334204,0.07415771484375,2.3474373817443848,-0.02015182189643383,0.29236748814582825,-0.023474372923374176,0.003322552191093564,0.0,0.11817628890275955,0.6874788999557495,0.7883897812634149,2.082320213317871,1.2407066822052002,2.2004966735839844,1.494483232498169,4.633664608001709,2.7733194828033447,,,,,,
8513552000.0,188.05,7.110000133514404,6529777152.0,3450.3278908916877,79.0,0.02010604739189148,1310720.0,1530.9690158367157,0.007845754735171795,0.07647705078125,2.3646326065063477,-0.019998755306005478,0.2525615096092224,-0.02364632859826088,0.003647569566965103,0.0,0.06489337980747223,0.6570976376533508,0.8116786869124362,2.2618250846862793,1.3443225622177124,2.326718330383301,1.5141892433166504,4.748534202575684,2.7658069133758545,,,,,,
8513552000.0,176.45,6.510000228881836,6529777152.0,3545.5091510638827,80.0,0.017956584692001343,1327104.0,1535.5900728702545,0.0046222275123000145,0.050048828125,2.375281810760498,-0.021728061139583588,0.3359317183494568,-0.023752817884087563,0.00202475069090724,0.0,0.03290346637368202,0.6831401586532593,0.7942105304158118,2.455782413482666,1.3379613161087036,2.4886860847473145,1.5059078931808472,4.621057033538818,2.767592430114746,,,,,,
8513552000.0,190.78,7.25,6529777152.0,3561.774464256476,81.0,0.019693586975336075,1343488.0,1540.1900272369385,0.006512205116450787,0.06494140625,2.3522322177886963,-0.021338481456041336,0.22488069534301758,-0.02352232113480568,0.00218383502215147,0.0,0.09816153347492218,0.590757429599762,0.8144796228483523,2.0856053829193115,1.1713470220565796,2.1837668418884277,1.3715554475784302,4.59995436668396,2.760348081588745,,,,,,
8513552000.0,232.74,8.34000015258789,6529777152.0,3476.5085357231173,82.0,0.019920596852898598,1359872.0,1544.9028015136719,0.004434788599610329,0.04473876953125,2.3848865032196045,-0.02193300984799862,0.21333099901676178,-0.02384886145591736,0.0019158562645316124,0.0,0.148879736661911,0.6273753046989441,0.7902958106592668,1.9012956619262695,1.1356055736541748,2.050175666809082,1.3700106143951416,4.712774276733398,2.7562484741210938,,,,,,
8513552000.0,193.9,6.46999979019165,6529777152.0,3633.319972779501,83.0,0.017365695908665657,1376256.0,1549.4121758937836,0.0041043320670723915,0.0406494140625,2.362050771713257,-0.02282601036131382,0.15609648823738098,-0.02362050674855709,0.0007944945245981216,0.0,0.10136578977108002,0.5203308463096619,0.8100901325575249,1.690351963043213,1.0060417652130127,1.791717767715454,1.194003939628601,4.509374380111694,2.7614269256591797,,,,,,
8513552000.0,207.36,7.639999866485596,6529777152.0,3559.03715586433,84.0,0.01911551132798195,1392640.0,1554.0156681537628,0.003680300898849964,0.03692626953125,2.3623969554901123,-0.023327426984906197,0.2256416380405426,-0.023623965680599213,0.0002965405583381653,0.0,0.13492214679718018,0.6613276600837708,0.8108841717243571,2.040513038635254,1.300819754600525,2.1754350662231445,1.520732045173645,4.603492259979248,2.7671146392822266,,,,,,
8513552000.0,224.01,9.0600004196167,6529777152.0,3491.4439784351903,85.0,0.0183548741042614,1409024.0,1558.7082824707031,0.0030856665689498186,0.03076171875,2.371865749359131,-0.022637125104665756,0.18800659477710724,-0.023718656972050667,0.0010815300047397614,0.0,0.13357184827327728,0.6144418120384216,0.8180975499829459,2.099213123321533,1.2240564823150635,2.2327847480773926,1.4406598806381226,4.692614316940308,2.8008623123168945,,,,,,
8513552000.0,232.31,9.770000457763672,6529777152.0,3518.6135786851087,86.0,0.02483881637454033,1425408.0,1563.3646619319916,0.006137901917099953,0.064453125,2.3347089290618896,-0.022248420864343643,0.28682029247283936,-0.023347090929746628,0.0010986682027578354,0.0,0.2326042652130127,0.7287197113037109,0.850774252618232,2.3589272499084473,1.6328339576721191,2.591531753540039,1.8864212036132812,4.656379461288452,2.7675955295562744,,,,,,
8513552000.0,232.38,10.770000457763672,6529777152.0,3555.871972524781,87.0,0.024464743211865425,1441792.0,1567.9722518920898,0.00436805933713913,0.046875,2.3167169094085693,-0.020938441157341003,0.25949910283088684,-0.023167166858911514,0.0022287145256996155,0.0,0.2234349250793457,0.6707012057304382,0.8358208064693251,2.11444091796875,1.3807237148284912,2.3378758430480957,1.655274748802185,4.607589960098267,2.7638766765594482,,,,,,
8513552000.0,233.5,9.739999771118164,6529777152.0,3606.748698920581,88.0,0.01959019899368286,1458176.0,1572.514847278595,0.005727268755435944,0.0574951171875,2.2908382415771484,-0.02107122354209423,0.275342732667923,-0.022908378392457962,0.001837155781686306,0.0,0.14599007368087769,0.7140386700630188,0.7968452265297564,1.9574110507965088,1.3366544246673584,2.1034011840820312,1.5841935873031616,4.542595386505127,2.821410894393921,,,,,,
8513552000.0,224.14,8.8100004196167,6529777152.0,3637.557256682911,89.0,0.02085527777671814,1474560.0,1577.018968820572,0.005159510765224695,0.0565185546875,2.2828493118286133,-0.021453004330396652,0.316692978143692,-0.022828493267297745,0.0013754870742559433,0.0,0.21525803208351135,0.7484288811683655,0.8437758439638281,2.364027976989746,1.676992654800415,2.5792860984802246,1.893548846244812,4.504121541976929,2.767796516418457,,,,,,
8513552000.0,244.21,10.15999984741211,6529777152.0,3562.353307684747,90.0,0.022504691034555435,1490944.0,1581.6181757450104,0.004721308592706919,0.046142578125,2.2946293354034424,-0.020944925025105476,0.3358299434185028,-0.022946296259760857,0.002001370768994093,0.0,0.1804250031709671,0.7136238813400269,0.8372579140924705,2.3498330116271973,1.5815253257751465,2.5302581787109375,1.7689661979675293,4.599206924438477,2.8303258419036865,,,,,,
8513552000.0,259.25,11.4399995803833,6529777152.0,3575.7964161630143,91.0,0.022281045094132423,1507328.0,1586.2000920772552,0.006137772463262081,0.0667724609375,2.281773328781128,-0.02026008814573288,0.3189759850502014,-0.022817732766270638,0.0025576408952474594,0.0,0.16369646787643433,0.738311231136322,0.8289549963338267,2.8277292251586914,1.6081379652023315,2.9914255142211914,1.7851890325546265,4.581916332244873,2.7665228843688965,,,,,,
8513552000.0,274.6,12.010000228881836,6529777152.0,3501.2286866939967,92.0,0.022626131772994995,1523712.0,1590.879592180252,0.008291687816381454,0.0797119140625,2.2813351154327393,-0.018648240715265274,0.284207820892334,-0.022813349962234497,0.004165109246969223,0.0,0.17922303080558777,0.7303017973899841,0.8078020488812666,2.7315406799316406,1.4557263851165771,2.910763740539551,1.6658194065093994,4.679500102996826,2.7715914249420166,,,,,,
8513552000.0,257.01,11.010000228881836,6529777152.0,3619.430651428214,93.0,0.02198943868279457,1540096.0,1595.406270980835,0.004891311749815941,0.05029296875,2.2668700218200684,-0.02022482082247734,0.27572375535964966,-0.02266869880259037,0.0024438798427581787,0.0,0.1518176794052124,0.7170206308364868,0.8167010983598686,2.9033265113830566,1.464630365371704,3.0551443099975586,1.6747572422027588,4.526678800582886,2.7835404872894287,,,,,,
8513552000.0,264.91,11.5600004196167,6529777152.0,3502.784191068342,94.0,0.021979793906211853,1556480.0,1600.0836930274963,0.006251144222915173,0.0579833984375,2.265795946121216,-0.019712727516889572,0.2913302183151245,-0.022657958790659904,0.002945229411125183,0.0,0.1504448652267456,0.7209616303443909,0.7949078302263525,2.710482120513916,1.368293285369873,2.860927104949951,1.5919800996780396,4.677422046661377,2.7908098697662354,,,,,,
8513776000.0,266.78,12.489999771118164,6529777152.0,3551.8067802398955,95.0,0.02408144250512123,1572864.0,1604.6965565681458,0.0048032719641923904,0.04998779296875,2.2620413303375244,-0.020627668127417564,0.2702552378177643,-0.022620413452386856,0.0019927462562918663,0.0,0.24445103108882904,0.7052332162857056,0.8399927042051092,2.829035758972168,1.4961020946502686,3.073486804962158,1.76304292678833,4.612863540649414,2.7757303714752197,,,,,,
,,,,,,,,,,,,,,,,,,,,,,,,,,0.050080835819244385,0.5585057139396667,0.49661120772361755,0.050080835819244385,0.5585057139396667,0.49661120772361755
,,,,,,,,,,,,,,,,,,,,,,,,,,0.028927240520715714,0.4408353567123413,0.4053333103656769,0.028927240520715714,0.4408353567123413,0.4053333103656769
,,,,,,,,,,,,,,,,,,,,,,,,,,0.025389188900589943,0.40868914127349854,0.378420352935791,0.025389188900589943,0.40868914127349854,0.378420352935791
,,,,,,,,,,,,,,,,,,,,,,,,,,0.02353702485561371,0.37663882970809937,0.3476628363132477,0.02353702485561371,0.37663882970809937,0.3476628363132477
,,,,,,,,,,,,,,,,,,,,,,,,,,0.02139478549361229,0.3502175509929657,0.3262377083301544,0.02139478549361229,0.3502175509929657,0.3262377083301544
,,,,,,,,,,,,,,,,,,,,,,,,,,0.022259065881371498,0.3441196382045746,0.3208620548248291,0.022259065881371498,0.3441196382045746,0.3208620548248291
8513776000.0,283.2,14.6899995803833,6327188480.0,28.130383670620866,96.0,0.027217119932174683,1589248.0,2187.127290248871,0.003488468239083886,0.03338623046875,2.297227621078491,-0.020944811403751373,0.29716289043426514,-0.02297227457165718,0.002027466893196106,0.0,0.320207804441452,0.7410252690315247,0.8788479805610662,2.18461537361145,1.8707019090652466,2.5048232078552246,2.1289610862731934,582.4307336807251,2.879617929458618,,,,,,
8513776000.0,287.33,14.430000305175781,6529777152.0,3563.4533515151043,97.0,0.026526503264904022,1605632.0,2191.725077390671,0.003353675827383995,0.033935546875,2.2859368324279785,-0.020951777696609497,0.3061170279979706,-0.022859368473291397,0.0019075917080044746,0.0,0.2854427099227905,0.7647181153297424,0.8717075715330072,2.5711426734924316,1.9111275672912598,2.8565855026245117,2.135014772415161,4.597787141799927,2.7841451168060303,,,,,,
8513776000.0,287.5,14.029999732971191,6529777152.0,3607.761741432393,98.0,0.024850614368915558,1622016.0,2196.2663972377777,0.004840349778532982,0.05084228515625,2.2780942916870117,-0.021660927683115005,0.3501313328742981,-0.022780941799283028,0.0011200145818293095,0.0,0.22018350660800934,0.815359354019165,0.8559059469616713,2.9235708713531494,1.9920334815979004,3.143754482269287,2.1479594707489014,4.541319847106934,2.7802271842956543,,,,,,
8513776000.0,299.07,13.90999984741211,6529777152.0,3540.124475886814,99.0,0.022598661482334137,1638400.0,2200.894483089447,0.00982652883976698,0.108642578125,2.2567203044891357,-0.017169253900647163,0.4124939441680908,-0.022567203268408775,0.005397953558713198,0.0,0.2182735800743103,0.8902995586395264,0.8267580500804225,3.1473731994628906,2.0581510066986084,3.3656468391418457,2.1389944553375244,4.6280858516693115,2.7735157012939453,,,,,,
8513776000.0,307.28,14.880000114440918,6529777152.0,3559.0190920661857,100.0,0.025484666228294373,1654784.0,2205.497998714447,0.007196264341473579,0.08245849609375,2.267477512359619,-0.01921699196100235,0.4563635587692261,-0.022674772888422012,0.003457784652709961,0.0,0.24768231809139252,0.9427521228790283,0.8225231511678981,3.7478952407836914,2.152061700820923,3.995577812194824,2.237827777862549,4.603515625,2.7656097412109375,,,,,,
8513776000.0,333.81,17.360000610351562,6529777152.0,3547.7624112742883,101.0,0.02679947391152382,1671168.0,2210.116120815277,0.005118115805089474,0.0589599609375,2.2801475524902344,-0.02186829224228859,0.36525699496269226,-0.022801473736763,0.0009331805631518364,0.0,0.2476888746023178,0.8267594575881958,0.8363234895845815,3.784841775894165,1.965213656425476,4.032530784606934,2.043553352355957,4.618122100830078,2.7653791904449463,,,,,,
8513776000.0,343.1,17.649999618530273,6529777152.0,3575.3594018490553,102.0,0.027084270492196083,1687552.0,2214.6985971927643,0.003020060481503606,0.02703857421875,2.2723405361175537,-0.021479995921254158,0.37445181608200073,-0.022723402827978134,0.001243408303707838,0.0,0.2117280662059784,0.8252561688423157,0.8368469485512562,4.086764335632324,1.9197616577148438,4.298492431640625,2.0431067943573,4.582476377487183,2.751858949661255,,,,,,
8513776000.0,349.24,19.299999237060547,6529777152.0,3607.3206666349956,103.0,0.028678542003035545,1703936.0,2219.240472316742,0.002693609334528446,0.02691650390625,2.2739310264587402,-0.021357759833335876,0.3237611651420593,-0.022739309817552567,0.0013815474230796099,0.0,0.2616617679595947,0.7856923341751099,0.8518422291390526,4.41365385055542,1.8805594444274902,4.6753153800964355,2.04122257232666,4.541875123977661,2.763715982437134,,,,,,
8513776000.0,345.0,18.3700008392334,6529777152.0,3570.671343076269,104.0,0.025625240057706833,1720320.0,2223.8289651870728,0.0033765947446227074,0.039794921875,2.2841978073120117,-0.021680796518921852,0.4226103127002716,-0.02284197509288788,0.001161184161901474,0.0,0.14979293942451477,0.9004769325256348,0.7808365572566296,4.456222057342529,1.8323776721954346,4.606015205383301,1.9234837293624878,4.5884928703308105,2.7696502208709717,,,,,,
8513776000.0,341.89,17.469999313354492,6529777152.0,3594.51419896227,105.0,0.027284521609544754,1736704.0,2228.3870220184326,0.0021128326188772917,0.01739501953125,2.2850866317749023,-0.021283261477947235,0.3842836022377014,-0.022850867360830307,0.0015676068142056465,0.0,0.18897685408592224,0.8734973669052124,0.7991899554206177,4.654109477996826,1.8205912113189697,4.843086242675781,1.9492568969726562,4.558056831359863,2.7636330127716064,,,,,,
8513776000.0,340.95,17.43000030517578,6529777152.0,3591.508418681087,106.0,0.02451804094016552,1753088.0,2232.948893547058,0.00328826904296875,0.03533935546875,2.2786388397216797,-0.022686246782541275,0.3299974501132965,-0.02278638631105423,0.00010014028521254659,0.0,0.12661272287368774,0.7906842231750488,0.8154921338891589,4.5625457763671875,1.6601098775863647,4.6891584396362305,1.8407535552978516,4.561871528625488,2.7589941024780273,,,,,,
8513776000.0,348.15,17.90999984741211,6529777152.0,3542.17734619104,107.0,0.027958787977695465,1769472.0,2237.5742971897125,0.0029907114803791046,0.0296630859375,2.2823147773742676,-0.022783836349844933,0.32105082273483276,-0.02282315120100975,3.931671380996704e-05,0.0,0.19038322567939758,0.7861395478248596,0.807944712259205,4.817276954650879,1.7048208713531494,5.007659912109375,1.7938510179519653,4.625403642654419,2.7716944217681885,,,,,,
8513776000.0,355.97,18.520000457763672,6529777152.0,3560.0366645124273,108.0,0.025311969220638275,1785856.0,2242.1764969825745,0.003161295782774687,0.03204345703125,2.276066541671753,-0.02178250066936016,0.3416861295700073,-0.0227606650441885,0.0009781671687960625,0.0,0.19612398743629456,0.7824421525001526,0.8070065269566284,4.723455905914307,1.6933528184890747,4.919579982757568,1.781069040298462,4.6021997928619385,2.7682554721832275,,,,,,
8513776000.0,350.65,18.530000686645508,6529777152.0,3581.997175454876,109.0,0.027752162888646126,1802240.0,2246.75048160553,0.0026845198590308428,0.02996826171875,2.29518985748291,-0.0220122542232275,0.2830188274383545,-0.022951897233724594,0.0009396430104970932,0.0,0.11976487934589386,0.7136487364768982,0.8179702980625562,4.730110168457031,1.5283175706863403,4.849874973297119,1.6726815700531006,4.573984622955322,2.7562355995178223,,,,,,
8513776000.0,350.4,19.90999984741211,6529777152.0,3555.5805440586714,110.0,0.030992329120635986,1818624.0,2251.3584492206573,0.004306148272007704,0.041748046875,2.2680535316467285,-0.02041970193386078,0.34010350704193115,-0.022680535912513733,0.002260832116007805,0.0,0.21492348611354828,0.7965660095214844,0.818230416970374,5.233251094818115,1.7082608938217163,5.448174953460693,1.8683637380599976,4.6079676151275635,2.764403820037842,,,,,,
8513776000.0,375.18,21.520000457763672,6529777152.0,3567.435808430353,111.0,0.029311403632164,1835008.0,2255.9511036872864,0.0039083161391317844,0.04345703125,2.2803471088409424,-0.02206953428685665,0.2735244631767273,-0.022803470492362976,0.0007339362055063248,0.0,0.16761326789855957,0.7305260300636292,0.8141869848715755,5.258452415466309,1.6071767807006836,5.426065444946289,1.694718599319458,4.592654466629028,2.759546995162964,,,,,,
8513776000.0,377.26,21.3799991607666,6529777152.0,3604.025396405167,112.0,0.02614320069551468,1851392.0,2260.497131586075,0.002822904847562313,0.026611328125,2.2838621139526367,-0.020392026752233505,0.3035022020339966,-0.022838620468974113,0.002446593716740608,0.0,0.16747185587882996,0.764121949672699,0.8048115495549355,5.486145973205566,1.6216492652893066,5.653617858886719,1.7295598983764648,4.546027898788452,2.7594385147094727,,,,,,
8513776000.0,384.34,22.229999542236328,6529777152.0,3428.626119594403,113.0,0.02966221049427986,1867776.0,2265.275722026825,0.002755924127995968,0.02630615234375,2.275097608566284,-0.021009746938943863,0.2648153305053711,-0.02275097742676735,0.0017412304878234863,0.0,0.2111026793718338,0.7033687233924866,0.8136441666353403,5.729158401489258,1.518766164779663,5.940260887145996,1.6293376684188843,4.778590440750122,2.8072638511657715,,,,,,
8513776000.0,363.94,20.059999465942383,6529777152.0,3572.245351913032,114.0,0.028092725202441216,1884160.0,2269.862193107605,0.00327851134352386,0.03289794921875,2.283494472503662,-0.020633477717638016,0.36308711767196655,-0.02283494547009468,0.0022014714777469635,0.0,0.112757608294487,0.8315636515617371,0.7970791275374067,5.824578762054443,1.6234298944473267,5.9373369216918945,1.846002459526062,4.586471080780029,2.769930362701416,,,,,,
8513776000.0,356.55,19.450000762939453,6529777152.0,3580.44795517195,115.0,0.029982591047883034,1900544.0,2274.4381568431854,0.004924196284264326,0.0560302734375,2.267320156097412,-0.020914999768137932,0.319440096616745,-0.02267320267856121,0.001758206868544221,0.0,0.1471349596977234,0.7414341568946838,0.8138624021649853,5.772950172424316,1.6229946613311768,5.9200849533081055,1.7185245752334595,4.575963735580444,2.808880567550659,,,,,,
8513776000.0,346.52,19.510000228881836,6529777152.0,3475.4145791515007,116.0,0.0287700816988945,1916928.0,2279.152414560318,0.004283847752958536,0.04180908203125,2.2891387939453125,-0.021041883155703545,0.3762507438659668,-0.022891385480761528,0.0018495051190257072,0.0,0.08949954062700272,0.8177947402000427,0.8040754823868286,5.81438684463501,1.6497176885604858,5.903886318206787,1.8475652933120728,4.714257717132568,2.7626962661743164,,,,,,
8513776000.0,335.9,17.40999984741211,6529777152.0,3574.445905223095,117.0,0.0248296856880188,1933312.0,2283.7360620498657,0.0034850200172513723,0.03497314453125,2.2955238819122314,-0.022315828129649162,0.3426000475883484,-0.022955235093832016,0.0006394106894731522,0.0,0.09328606724739075,0.8105952739715576,0.7924573086977218,5.882534027099609,1.6432591676712036,5.975820541381836,1.7793056964874268,4.5836474895477295,2.769211769104004,,,,,,
8513776000.0,350.86,18.329999923706055,6529777152.0,3508.2827007161914,118.0,0.02775566838681698,1949696.0,2288.406153202057,0.0032603051513433456,0.03240966796875,2.28057861328125,-0.021272942423820496,0.38144582509994507,-0.02280578389763832,0.0015328438021242619,0.0,0.123734250664711,0.8401153683662415,0.7665245201929098,5.9625983238220215,1.6130338907241821,6.086332321166992,1.7386744022369385,4.670091152191162,2.7731850147247314,,,,,,
8513776000.0,377.88,21.059999465942383,6529777152.0,3612.1345694370616,119.0,0.029001202434301376,1966080.0,2292.9419753551483,0.004657627083361149,0.048828125,2.2791731357574463,-0.019400497898459435,0.3581739366054535,-0.022791730239987373,0.0033912332728505135,0.0,0.09644065052270889,0.8288323879241943,0.7476970445520346,6.19389533996582,1.5106184482574463,6.290336608886719,1.6500834226608276,4.535822153091431,2.786257266998291,,,,,,
8513776000.0,373.21,20.469999313354492,6529777152.0,3348.7938493221345,120.0,0.026999542489647865,1982464.0,2297.8344831466675,0.005628538317978382,0.061279296875,2.2792556285858154,-0.020592475309967995,0.27884232997894287,-0.022792555391788483,0.002200079383328557,0.0,0.07862593233585358,0.7211772203445435,0.7609545191820956,6.343408584594727,1.331237554550171,6.42203426361084,1.4750335216522217,4.892507791519165,2.7762739658355713,,,,,,
8513776000.0,376.34,21.229999542236328,6529777152.0,3561.5387341017445,121.0,0.029611501842737198,1998848.0,2302.434741973877,0.0036699760239571333,0.03900146484375,2.273959159851074,-0.020933562889695168,0.28869691491127014,-0.02273959293961525,0.0018060309812426567,0.0,0.12254616618156433,0.7394283413887024,0.7941333837774288,6.355068206787109,1.5556508302688599,6.477614402770996,1.6296839714050293,4.600258827209473,2.7700061798095703,,,,,,
8513776000.0,390.84,22.790000915527344,6529777152.0,3461.476960602632,122.0,0.029547374695539474,2015232.0,2307.1679816246033,0.00443049194291234,0.04302978515625,2.2852344512939453,-0.021033041179180145,0.24377331137657166,-0.022852342575788498,0.0018193013966083527,0.0,0.1675264537334442,0.6779732704162598,0.7719389701081859,6.431960105895996,1.3853988647460938,6.599485874176025,1.4196659326553345,4.733239650726318,2.7800021171569824,,,,,,
8513776000.0,397.4,23.65999984741211,6529777152.0,3531.1327441113212,123.0,0.03017406351864338,2031616.0,2311.8078525066376,0.0033766361884772778,0.033203125,2.2648186683654785,-0.02024165727198124,0.2141542285680771,-0.02264818735420704,0.0024065296165645123,0.0,0.16656775772571564,0.6359735131263733,0.8048562498029845,6.377263069152832,1.3678900003433228,6.543830871582031,1.4396659135818481,4.639870882034302,2.7733356952667236,,,,,,
8513776000.0,400.86,24.3799991607666,6529777152.0,3571.543001793529,124.0,0.034598030149936676,2048000.0,2316.3952255249023,0.004090752452611923,0.0423583984375,2.2518348693847656,-0.020512495189905167,0.22285540401935577,-0.022518349811434746,0.0020058550871908665,0.0,0.1688191443681717,0.6576962471008301,0.7780104170356587,6.634304046630859,1.286257028579712,6.803123474121094,1.3959152698516846,4.5873730182647705,2.756429672241211,,,,,,
8513776000.0,388.1,23.559999465942383,6529777152.0,3519.97613118383,125.0,0.027260974049568176,2064384.0,2321.049802541733,0.00312874186784029,0.0311279296875,2.2499847412109375,-0.019888155162334442,0.2146698236465454,-0.022499844431877136,0.0026116883382201195,0.0,0.13244865834712982,0.648106575012207,0.7982376542345353,6.634166240692139,1.3133816719055176,6.76661491394043,1.442867636680603,4.654577016830444,2.759319305419922,,,,,,
8513776000.0,372.65,22.059999465942383,6529777152.0,3429.789925564208,126.0,0.030966386198997498,2080768.0,2325.8267714977264,0.0029186992906033993,0.0272216796875,2.2518279552459717,-0.021130118519067764,0.2925620377063751,-0.022518279030919075,0.00138816237449646,0.0,0.05296306312084198,0.766781747341156,0.7408368874239577,6.752577781677246,1.3705816268920898,6.805541038513184,1.5062096118927002,4.776968955993652,2.919980525970459,,,,,,
8513776000.0,372.0,21.3700008392334,6529777152.0,3517.859221798771,127.0,0.03021930903196335,2097152.0,2330.484149456024,0.003738000523298979,0.03729248046875,2.2699995040893555,-0.020146679133176804,0.2422923743724823,-0.022699996829032898,0.002553321421146393,0.0,0.1743321418762207,0.6800851225852966,0.749617698266414,6.55422830581665,1.2688524723052979,6.728560447692871,1.3591314554214478,4.6573779582977295,2.765538454055786,,,,,,
,,,,,,,,,,,,,,,,,,,,,,,,,,0.04416033998131752,1.393158197402954,1.1948779821395874,0.04416033998131752,1.393158197402954,1.1948779821395874
,,,,,,,,,,,,,,,,,,,,,,,,,,0.02456831745803356,1.1561262607574463,1.0521667003631592,0.02456831745803356,1.1561262607574463,1.0521667003631592
,,,,,,,,,,,,,,,,,,,,,,,,,,0.02258951961994171,1.0743598937988281,0.9810371994972229,0.02258951961994171,1.0743598937988281,0.9810371994972229
,,,,,,,,,,,,,,,,,,,,,,,,,,0.021875645965337753,1.0214176177978516,0.9356399178504944,0.021875645965337753,1.0214176177978516,0.9356399178504944
,,,,,,,,,,,,,,,,,,,,,,,,,,0.022187819704413414,0.9821757078170776,0.9048295617103577,0.022187819704413414,0.9821757078170776,0.9048295617103577
,,,,,,,,,,,,,,,,,,,,,,,,,,0.021327298134565353,0.9484877586364746,0.881865382194519,0.021327298134565353,0.9484877586364746,0.881865382194519
8514008000.0,368.72,21.559999465942383,6327188480.0,28.103027650187695,128.0,0.02831033430993557,2113536.0,2913.481832265854,0.003861046163365245,0.03643798828125,2.2856862545013428,-0.022675858810544014,0.3033500909805298,-0.022856861352920532,0.00018100813031196594,0.0,0.175892174243927,0.7509560585021973,0.7999628513791736,5.340693473815918,1.5805468559265137,5.516585350036621,1.6790319681167603,582.9976828098297,2.8029730319976807,,,,,,
8514008000.0,382.38,22.989999771118164,6529777152.0,3531.362107199136,129.0,0.034753911197185516,2129920.0,2918.121401786804,0.0041696433909237385,0.043212890625,2.2896409034729004,-0.02260589599609375,0.30051183700561523,-0.022896409034729004,0.0002905130386352539,0.0,0.21594971418380737,0.7519257664680481,0.8313566930157978,5.810725212097168,1.7363361120224,6.026675224304199,1.8310097455978394,4.639569520950317,2.8026320934295654,,,,,,
8514008000.0,380.02,23.149999618530273,6529777152.0,3515.4159085853944,130.0,0.027247225865721703,2146304.0,2922.7820167541504,0.004855088423937559,0.05316162109375,2.280472755432129,-0.02155221998691559,0.31502726674079895,-0.022804725915193558,0.001252502202987671,0.0,0.16499310731887817,0.7738792896270752,0.8082655822027848,5.934262275695801,1.6421010494232178,6.099255084991455,1.7673522233963013,4.660614967346191,2.8753855228424072,,,,,,
8514008000.0,378.56,21.559999465942383,6529777152.0,3626.807948026475,131.0,0.03008713200688362,2162688.0,2927.2994878292084,0.004547121003270149,0.04071044921875,2.2724785804748535,-0.02156173437833786,0.37406423687934875,-0.022724784910678864,0.0011630482040345669,0.0,0.10860666632652283,0.8690575361251831,0.755403781541051,6.1941752433776855,1.7524772882461548,6.30278205871582,1.7572110891342163,4.517471075057983,2.76261830329895,,,,,,
8514008000.0,392.72,22.920000076293945,6529777152.0,3593.8325731943023,132.0,0.026343543082475662,2179072.0,2931.858409166336,0.0037053124979138374,0.04144287109375,2.2714014053344727,-0.021094651892781258,0.2605842649936676,-0.02271401323378086,0.0016193622723221779,0.0,0.1759267896413803,0.7127507925033569,0.7959694906762753,6.2682785987854,1.5231536626815796,6.444205284118652,1.5779374837875366,4.5589213371276855,2.7651102542877197,,,,,,
8514008000.0,402.17,23.18000030517578,6529777152.0,3594.900618498154,133.0,0.03139592707157135,2195456.0,2936.415976047516,0.003712225239723921,0.03631591796875,2.2920775413513184,-0.021369237452745438,0.2555178105831146,-0.022920774295926094,0.001551537774503231,0.0,0.15225815773010254,0.7077914476394653,0.7556665935386067,6.417715549468994,1.4025155305862427,6.569973468780518,1.4319030046463013,4.55756688117981,2.760922908782959,,,,,,
8514008000.0,397.05,23.25,6529777152.0,3630.1640155667183,134.0,0.029685690999031067,2211840.0,2940.9292707443237,0.005039062350988388,0.05450439453125,2.2966558933258057,-0.021060381084680557,0.3315414488315582,-0.02296655997633934,0.001906178891658783,0.0,0.1289423108100891,0.7988694310188293,0.7442025150127602,6.607071399688721,1.457947015762329,6.736013412475586,1.5795295238494873,4.513294696807861,2.762586832046509,,,,,,
8514008000.0,390.21,22.700000762939453,6529777152.0,3571.2963257878555,135.0,0.02855341136455536,2228224.0,2945.51696062088,0.003387664444744587,0.029052734375,2.289807081222534,-0.01995527558028698,0.22165308892726898,-0.022898072376847267,0.0029427949339151382,0.0,0.14350122213363647,0.64753258228302,0.7613992133807477,6.766869068145752,1.2667102813720703,6.910370349884033,1.3256396055221558,4.5876898765563965,2.7577474117279053,,,,,,
8514008000.0,400.61,24.110000610351562,6529777152.0,3559.439768091824,136.0,0.03249804675579071,2244608.0,2950.1199321746826,0.00447989534586668,0.04742431640625,2.3013625144958496,-0.02296392433345318,0.2296466827392578,-0.023013625293970108,4.970282316207886e-05,0.0,0.11196787655353546,0.6618379950523376,0.7726941782416843,6.943219184875488,1.3377082347869873,7.055187225341797,1.3881826400756836,4.60297155380249,2.7645790576934814,,,,,,
8514008000.0,413.39,25.09000015258789,6529777152.0,3589.276877213413,137.0,0.030615396797657013,2260992.0,2954.684639930725,0.0035183699801564217,0.032470703125,2.3209874629974365,-0.0215644221752882,0.22153759002685547,-0.02320987358689308,0.0016454514116048813,0.0,0.1536863148212433,0.656438946723938,0.7287891582823262,7.2432146072387695,1.2375736236572266,7.3969011306762695,1.2604954242706299,4.5647077560424805,2.7677180767059326,,,,,,
8514008000.0,408.81,24.110000610351562,6529777152.0,3588.8699238346385,138.0,0.02872548997402191,2277376.0,2959.249865293503,0.005121230147778988,0.05364990234375,2.2989859580993652,-0.021009862422943115,0.22397634387016296,-0.02298985794186592,0.0019799903966486454,0.0,0.08614327013492584,0.6534596085548401,0.7007229319905617,7.25670051574707,1.1653356552124023,7.342844009399414,1.194489598274231,4.56522536277771,2.767915725708008,,,,,,
8514008000.0,402.66,23.479999542236328,6529777152.0,3578.833907667986,139.0,0.03097354993224144,2293760.0,2963.827892780304,0.004411970265209675,0.04217529296875,2.295154571533203,-0.02148086205124855,0.2264346331357956,-0.02295154705643654,0.0014706843066960573,0.0,0.05076459050178528,0.6712579727172852,0.728856786923648,7.728556156158447,1.2004928588867188,7.77932071685791,1.2891095876693726,4.5780274868011475,2.7580087184906006,,,,,,
8514008000.0,398.28,22.8700008392334,6529777152.0,3633.1547742591983,140.0,0.028431497514247894,2310144.0,2968.3374722003937,0.004840890411287546,0.0494384765625,2.27836012840271,-0.020017225295305252,0.20970797538757324,-0.02278359979391098,0.002766374498605728,0.0,0.09643509238958359,0.6506154537200928,0.7043799905831961,7.680403709411621,1.1585454940795898,7.776839256286621,1.1966254711151123,4.509579420089722,2.7608532905578613,,,,,,
8514008000.0,411.59,25.010000228881836,6529777152.0,3516.481752457552,141.0,0.03435279428958893,2326528.0,2972.9966745376587,0.004088152199983597,0.04364013671875,2.294358968734741,-0.02238883450627327,0.19525086879730225,-0.022943586111068726,0.0005547534674406052,0.0,0.10281266272068024,0.6228598952293396,0.6910668349333347,7.713169097900391,1.0455909967422485,7.815981864929199,1.120617389678955,4.659202337265015,2.7882485389709473,,,,,,
8514008000.0,408.52,24.709999084472656,6529777152.0,3603.5839118889758,142.0,0.029469598084688187,2342912.0,2977.543259382248,0.0031952678691595793,0.02825927734375,2.2992472648620605,-0.021538332104682922,0.27307942509651184,-0.02299247309565544,0.0014541354030370712,0.0,0.007216557860374451,0.7178751826286316,0.6887323274159503,7.774204254150391,1.1234681606292725,7.781420707702637,1.2867141962051392,4.546584844589233,2.7715282440185547,,,,,,
8514008000.0,401.37,23.149999618530273,6529777152.0,3574.875071470735,143.0,0.025566890835762024,2359296.0,2982.126356601715,0.0037642368115484715,0.03662109375,2.2969908714294434,-0.02219071425497532,0.18778537213802338,-0.022969909012317657,0.0007791910320520401,0.0,0.055096689611673355,0.5968743562698364,0.6950997649970263,7.6951093673706055,0.9940384030342102,7.750205993652344,1.080946922302246,4.583097219467163,2.7772090435028076,,,,,,
8514008000.0,403.26,23.3700008392334,6529777152.0,3595.333017954514,144.0,0.0352477952837944,2375680.0,2986.6833753585815,0.00461441557854414,0.0416259765625,2.2696595191955566,-0.02169167809188366,0.2005019187927246,-0.022696593776345253,0.0010049166157841682,0.0,0.11430586874485016,0.6274178624153137,0.6938761264593926,7.448209762573242,1.0208866596221924,7.562515735626221,1.133989691734314,4.557018756866455,2.768963575363159,,,,,,
8514008000.0,411.39,25.389999389648438,6529777152.0,3578.088349880556,145.0,0.032355427742004395,2392064.0,2991.2623567581177,0.003543704282492399,0.03619384765625,2.269824266433716,-0.020964782685041428,0.14323368668556213,-0.022698240354657173,0.001733453944325447,0.0,0.15055643022060394,0.5305500626564026,0.7418890949186661,7.570489883422852,0.9839980006217957,7.721046447753906,1.0442930459976196,4.578981399536133,2.773878812789917,,,,,,
8514008000.0,403.1,25.780000686645508,6529777152.0,3572.132637954271,146.0,0.03177964314818382,2408448.0,2995.848972558975,0.008758453652262688,0.09051513671875,2.2620205879211426,-0.01819779723882675,0.1733148694038391,-0.022620204836130142,0.004422408528625965,0.0,0.10275085270404816,0.5803303718566895,0.7594133160560654,7.59172248840332,1.0351372957229614,7.6944732666015625,1.1831490993499756,4.586615800857544,2.77443790435791,,,,,,
8514008000.0,400.67,26.290000915527344,6529777152.0,3562.768122687903,147.0,0.035632167011499405,2424832.0,3000.447643995285,0.004166134633123875,0.0423583984375,2.2488210201263428,-0.021743405610322952,0.12474405765533447,-0.02248820848762989,0.0007448038086295128,0.0,0.14995288848876953,0.47686731815338135,0.809637775403917,7.796851634979248,0.9999804496765137,7.946804523468018,1.0929640531539917,4.5986714363098145,2.759273052215576,,,,,,
8514008000.0,400.9,25.139999389648438,6529777152.0,3545.652022664897,148.0,0.028523392975330353,2441216.0,3005.0685148239136,0.004398453049361706,0.03851318359375,2.2484805583953857,-0.02091272920370102,0.24416840076446533,-0.022484803572297096,0.0015720678493380547,0.0,0.019548220559954643,0.6815773248672485,0.6412494731400848,7.688687801361084,0.9941692352294922,7.708236217498779,1.1379384994506836,4.62087082862854,2.7777254581451416,,,,,,
8514008000.0,400.89,23.93000030517578,6529777152.0,3515.5552860321454,149.0,0.030280068516731262,2457600.0,3009.728945016861,0.0044110361486673355,0.04083251953125,2.2425525188446045,-0.021139992401003838,0.2106199860572815,-0.02242552489042282,0.0012855315580964088,0.0,0.05052412301301956,0.659426748752594,0.7109220066117432,8.095891952514648,1.0767467021942139,8.146415710449219,1.2264714241027832,4.660430192947388,2.831498384475708,,,,,,
8514008000.0,395.76,23.299999237060547,6529777152.0,3616.351101108884,150.0,0.03161878511309624,2473984.0,3014.2594785690308,0.0030351909808814526,0.0260009765625,2.2257421016693115,-0.021314432844519615,0.21299979090690613,-0.022257421165704727,0.0009429873898625374,0.0,0.06486014276742935,0.6420807242393494,0.7208798791747071,7.991279125213623,1.1048873662948608,8.05613899230957,1.2153286933898926,4.5305335521698,2.765176296234131,,,,,,
8514008000.0,403.56,24.309999465942383,6529777152.0,3632.018769096718,151.0,0.024915270507335663,2490368.0,3018.7704684734344,0.004237363580614328,0.0440673828125,2.222729206085205,-0.020931310951709747,0.20977115631103516,-0.022227289155125618,0.0012959875166416168,0.0,0.004676553420722485,0.6431849002838135,0.680753049359216,7.969187259674072,1.0509366989135742,7.97386360168457,1.138342261314392,4.5109899044036865,2.768827199935913,,,,,,
8514008000.0,407.34,23.719999313354492,6529777152.0,3589.847067066867,152.0,0.03300963342189789,2506752.0,3023.334451198578,0.005018044263124466,0.0574951171875,2.2126870155334473,-0.019376013427972794,0.1856282353401184,-0.02212687022984028,0.002750854939222336,0.0,0.05850069597363472,0.6114715337753296,0.6294361195485549,7.816989898681641,0.9555286765098572,7.875490188598633,1.0044872760772705,4.563982725143433,2.7651398181915283,,,,,,
8514008000.0,413.11,24.200000762939453,6529777152.0,3511.3636931324777,153.0,0.028995195403695107,2523136.0,3028.00044465065,0.004545536823570728,0.0546875,2.2077622413635254,-0.020971378311514854,0.15323008596897125,-0.022077620029449463,0.0011062435805797577,0.0,0.06543390452861786,0.5426949262619019,0.6648653790752928,8.075471878051758,0.9194939732551575,8.14090633392334,0.9374485611915588,4.6659934520721436,2.8932032585144043,,,,,,
8514008000.0,416.1,25.34000015258789,6529777152.0,3540.6096508418104,154.0,0.03341224789619446,2539520.0,3032.627896308899,0.00846846029162407,0.093505859375,2.205472469329834,-0.016831526532769203,0.15512163937091827,-0.022054728120565414,0.005223198793828487,0.0,0.07389134913682938,0.5452769994735718,0.6898332223212187,8.01171588897705,0.8827635645866394,8.085607528686523,0.9790880680084229,4.627451658248901,2.7691047191619873,,,,,,
8514008000.0,410.23,25.139999389648438,6529777152.0,3506.9979091560185,155.0,0.03270840272307396,2555904.0,3037.2996983528137,0.00760068092495203,0.08294677734375,2.2089414596557617,-0.018909232690930367,0.1921052187681198,-0.022089414298534393,0.003180176019668579,0.0,0.046604055911302567,0.6203531622886658,0.6653694011488365,8.048334121704102,0.9206821322441101,8.094938278198242,1.0724059343338013,4.671802043914795,2.847296953201294,,,,,,
8514008000.0,395.72,23.940000534057617,6529777152.0,3643.0074048188153,156.0,0.028299156576395035,2572288.0,3041.7970814704895,0.004071561619639397,0.04095458984375,2.200901985168457,-0.02072991617023945,0.21853911876678467,-0.022009022533893585,0.0012791063636541367,0.0,0.022301942110061646,0.6558677554130554,0.6331455975819873,7.976181983947754,0.8729910254478455,7.9984846115112305,1.0828527212142944,4.497383117675781,2.7662386894226074,,,,,,
8514008000.0,393.47,23.760000228881836,6529777152.0,3530.337099722765,157.0,0.03519819676876068,2588672.0,3046.4379980564117,0.004013658966869116,0.04339599609375,2.1976959705352783,-0.021718192845582962,0.17277838289737701,-0.021976958960294724,0.0002587670460343361,0.0,0.07069715112447739,0.575914740562439,0.6923755121567545,8.132802963256836,0.9021459817886353,8.203500747680664,1.0383650064468384,4.640916585922241,2.7816267013549805,,,,,,
8514008000.0,394.37,24.309999465942383,6529777152.0,3563.799299110677,158.0,0.028048207983374596,2605056.0,3051.0353388786316,0.005443427711725235,0.05615234375,2.1774039268493652,-0.019463853910565376,0.16807334125041962,-0.021774038672447205,0.0023101833648979664,0.0,0.0770045667886734,0.5784713625907898,0.6904143674942462,8.009408950805664,0.9130398035049438,8.086414337158203,1.0396666526794434,4.597340822219849,2.7875101566314697,,,,,,
8514008000.0,404.34,26.020000457763672,6529777152.0,3515.865912693918,159.0,0.035846538841724396,2621440.0,3055.695357322693,0.00492490641772747,0.05352783203125,2.1948328018188477,-0.018441947177052498,0.15533632040023804,-0.021948324516415596,0.003506380133330822,0.0,0.10317930579185486,0.5289403200149536,0.77658557160096,7.954556941986084,0.9877287149429321,8.05773639678955,1.1190552711486816,4.660018444061279,2.7768819332122803,,,,,,
,,,,,,,,,,,,,,,,,,,,,,,,,,0.024222781881690025,0.6820369362831116,0.5657721757888794,0.024222781881690025,0.6820369362831116,0.5657721757888794
,,,,,,,,,,,,,,,,,,,,,,,,,,0.01800193078815937,0.5758680105209351,0.5176911950111389,0.01800193078815937,0.5758680105209351,0.5176911950111389
,,,,,,,,,,,,,,,,,,,,,,,,,,0.017612285912036896,0.5529776811599731,0.5022166967391968,0.017612285912036896,0.5529776811599731,0.5022166967391968
,,,,,,,,,,,,,,,,,,,,,,,,,,0.01771167479455471,0.5258923172950745,0.477233350276947,0.01771167479455471,0.5258923172950745,0.477233350276947
,,,,,,,,,,,,,,,,,,,,,,,,,,0.017724424600601196,0.507800281047821,0.4702141582965851,0.017724424600601196,0.507800281047821,0.4702141582965851
,,,,,,,,,,,,,,,,,,,,,,,,,,0.017187174409627914,0.49642398953437805,0.459486186504364,0.017187174409627914,0.49642398953437805,0.459486186504364
8514008000.0,401.63,25.59000015258789,6327188480.0,28.115755060257364,160.0,0.03014766238629818,2637824.0,3638.4291293621063,0.0038139617536216974,0.03729248046875,2.2614505290985107,-0.020557288080453873,0.20829153060913086,-0.022614503279328346,0.0020572184585034847,0.0,0.08199967443943024,0.6381245255470276,0.7999126913964809,7.11760139465332,1.2743479013442993,7.199601173400879,1.4265758991241455,582.7337720394135,2.8805904388427734,,,,,,
8514008000.0,406.15,24.959999084472656,6529777152.0,3504.477612938924,161.0,0.028040096163749695,2654208.0,3643.104291200638,0.004610474221408367,0.04119873046875,2.2656333446502686,-0.020728731527924538,0.16263887286186218,-0.022656332701444626,0.0019275988452136517,0.0,0.10878389328718185,0.5647873878479004,0.7956764835903246,7.356411933898926,1.1723699569702148,7.465195655822754,1.2494702339172363,4.675161838531494,2.7935259342193604,,,,,,
8514008000.0,398.14,23.93000030517578,6529777152.0,3507.1833365469147,162.0,0.03380553424358368,2670592.0,3647.7758462429047,0.004905103240162134,0.048828125,2.268961191177368,-0.018220342695713043,0.2066478580236435,-0.022689612582325935,0.004469269886612892,0.0,0.08818713575601578,0.6402782201766968,0.7703359271850175,7.4994401931762695,1.1924506425857544,7.587627410888672,1.33604896068573,4.671555042266846,2.7980244159698486,,,,,,
8514008000.0,393.26,23.950000762939453,6529777152.0,3595.2617278911302,163.0,0.028916019946336746,2686976.0,3652.3329553604126,0.005721131339669228,0.07049560546875,2.2583677768707275,-0.020479705184698105,0.2282257378101349,-0.022583678364753723,0.0021039722487330437,0.0,0.11055770516395569,0.6712251901626587,0.7469017934522816,7.643218517303467,1.1708505153656006,7.753776550292969,1.3342088460922241,4.557109117507935,2.777348279953003,,,,,,
8514008000.0,391.75,24.139999389648438,6529777152.0,3333.5414420761717,164.0,0.0329994261264801,2703360.0,3657.247848510742,0.004762749187648296,0.03863525390625,2.2341971397399902,-0.021414265036582947,0.21526823937892914,-0.02234197035431862,0.000927705317735672,0.0,0.04988699406385422,0.6543798446655273,0.7495505348733789,7.778979301452637,1.2101881504058838,7.828866004943848,1.3075840473175049,4.91489315032959,2.7912356853485107,,,,,,
8514008000.0,390.76,23.709999084472656,6529777152.0,3481.7824296024287,165.0,0.03034316562116146,2719744.0,3661.9534842967987,0.004258432891219854,0.0443115234375,2.2125041484832764,-0.022339411079883575,0.24692507088184357,-0.022125041112303734,-0.00021437485702335835,0.0,0.035450078547000885,0.6975794434547424,0.7507391284887968,7.984200477600098,1.2713712453842163,8.019651412963867,1.3972281217575073,4.7056357860565186,2.7979321479797363,,,,,,
8514008000.0,388.17,22.84000015258789,6529777152.0,3483.689584672298,166.0,0.029115505516529083,2736128.0,3666.656543970108,0.0053430404514074326,0.046142578125,2.2045722007751465,-0.01962372660636902,0.20040282607078552,-0.022045722231268883,0.002421996556222439,0.0,0.04760245233774185,0.632314145565033,0.7611552243775003,7.910272598266602,1.1780714988708496,7.957874774932861,1.293820858001709,4.703059673309326,2.7439911365509033,,,,,,
8514008000.0,399.05,23.729999542236328,6529777152.0,3578.6780993595876,167.0,0.031004490330815315,2752512.0,3671.2347707748413,0.004418946802616119,0.04400634765625,2.1824488639831543,-0.020623620599508286,0.20288364589214325,-0.021824490278959274,0.0012008720077574253,0.0,0.08455915749073029,0.6312419772148132,0.7265375753151024,8.16777229309082,1.1476789712905884,8.25233268737793,1.2071102857589722,4.578226804733276,2.7695746421813965,,,,,,
8514008000.0,399.69,24.719999313354492,6529777152.0,3595.328503460321,168.0,0.03129645437002182,2768896.0,3675.7917952537537,0.0028128542471677065,0.0223388671875,2.1895885467529297,-0.020171701908111572,0.20961350202560425,-0.021895889192819595,0.0017241835594177246,0.0,0.06891149282455444,0.636881947517395,0.6684222910991071,8.188657760620117,0.9868173003196716,8.257569313049316,1.1060242652893066,4.5570244789123535,2.758948564529419,,,,,,
8514008000.0,393.38,25.899999618530273,6529777152.0,3540.967780657842,169.0,0.03673022985458374,2785280.0,3680.418778896332,0.003012322820723057,0.02911376953125,2.1665353775024414,-0.020520081743597984,0.17662279307842255,-0.021665357053279877,0.0011452757753431797,0.0,0.07126785814762115,0.5920518636703491,0.6910617713772549,8.168371200561523,0.9207307696342468,8.239639282226562,1.0651841163635254,4.626983642578125,2.767408847808838,,,,,,
8514008000.0,390.33,25.280000686645508,6529777152.0,3613.0032269643134,170.0,0.03088665008544922,2801664.0,3684.9535105228424,0.0035372490528970957,0.02081298828125,2.151949882507324,-0.02084692195057869,0.168302521109581,-0.021519498899579048,0.0006725736893713474,0.0,0.059039101004600525,0.5729144215583801,0.7386547297175043,8.143730163574219,1.0504143238067627,8.202768325805664,1.1206786632537842,4.53473162651062,2.765429735183716,,,,,,
8514008000.0,398.7,25.280000686645508,6529777152.0,3593.6420048491527,171.0,0.030828414484858513,2818048.0,3689.5126736164093,0.00319878407754004,0.0294189453125,2.153576374053955,-0.020511813461780548,0.14190344512462616,-0.021535765379667282,0.001023951917886734,0.0,0.0518244169652462,0.5253192186355591,0.7480656797328238,8.325889587402344,0.9829765558242798,8.377716064453125,1.046604037284851,4.5591630935668945,2.7780206203460693,,,,,,
8514008000.0,398.18,24.829999923706055,6529777152.0,3370.103644521193,172.0,0.030729442834854126,2834432.0,3694.3742451667786,0.002968404209241271,0.0299072265625,2.1739437580108643,-0.020464425906538963,0.19071854650974274,-0.02173943817615509,0.0012750104069709778,0.0,0.050243079662323,0.6176678538322449,0.7341528385468148,8.384298324584961,1.0063198804855347,8.434541702270508,1.1979540586471558,4.861571550369263,2.7600085735321045,,,,,,
8514008000.0,398.83,24.6200008392334,6529777152.0,3560.5918822342883,173.0,0.03202207386493683,2850816.0,3698.9757273197174,0.005612886510789394,0.056396484375,2.1480660438537598,-0.018861284479498863,0.18881696462631226,-0.021480659022927284,0.0026193764060735703,0.0,0.05071501433849335,0.6074531078338623,0.7522371152904304,8.533403396606445,1.1141650676727295,8.58411979675293,1.2203820943832397,4.601482152938843,2.7557549476623535,,,,,,
8514008000.0,395.32,24.719999313354492,6529777152.0,3498.811618770208,174.0,0.03438584879040718,2867200.0,3703.6584601402283,0.005415214225649834,0.0540771484375,2.114473819732666,-0.018962547183036804,0.21643990278244019,-0.02114473655819893,0.0021821896079927683,0.0,0.02493773028254509,0.652685284614563,0.7380804820170968,8.591428756713867,1.1280066967010498,8.61636734008789,1.2753263711929321,4.682732820510864,2.773935317993164,,,,,,
8514008000.0,405.92,25.229999542236328,6529777152.0,3558.8830664962065,175.0,0.027646450325846672,2883584.0,3708.2621517181396,0.0056554037146270275,0.06695556640625,2.1302058696746826,-0.018802952021360397,0.1530332863330841,-0.021302057430148125,0.0024991061072796583,0.0,0.04576263204216957,0.5466864109039307,0.7712747714735683,8.698333740234375,1.067634105682373,8.744096755981445,1.1430927515029907,4.603691577911377,2.762033700942993,,,,,,
8514008000.0,407.35,25.239999771118164,6529777152.0,3598.7056886219234,176.0,0.03246578574180603,2899968.0,3712.8148996829987,0.0059037040919065475,0.06048583984375,2.0975475311279297,-0.01825936883687973,0.19901423156261444,-0.020975472405552864,0.0027161051984876394,0.0,-0.018112752586603165,0.630466639995575,0.7612509006189396,8.662747383117676,1.1310490369796753,8.644634246826172,1.2902965545654297,4.552747964859009,2.7600314617156982,,,,,,
8514008000.0,405.78,24.540000915527344,6529777152.0,3615.8004281851686,177.0,0.03143603354692459,2916352.0,3717.3461232185364,0.003516952972859144,0.03106689453125,2.1224799156188965,-0.018774472177028656,0.20378251373767853,-0.021224798634648323,0.0024503287859261036,0.0,0.005521200597286224,0.6359828114509583,0.7059915544520556,8.6622314453125,1.0513299703598022,8.667753219604492,1.1729142665863037,4.53122353553772,2.775414228439331,,,,,,
8514008000.0,407.38,25.360000610351562,6529777152.0,3470.9241338192865,178.0,0.03468209505081177,2932736.0,3722.066479921341,0.004818761721253395,0.05615234375,2.114439010620117,-0.018447820097208023,0.12355358153581619,-0.021144388243556023,0.0026965616270899773,0.0,0.1248912662267685,0.5099135637283325,0.7440027145745416,8.609445571899414,1.0069453716278076,8.734336853027344,1.0078154802322388,4.720356702804565,2.882554531097412,,,,,,
8514008000.0,416.17,26.860000610351562,6529777152.0,3606.45398201577,179.0,0.03288240358233452,2949120.0,3726.6094465255737,0.002153298119083047,0.0220947265625,2.107619524002075,-0.02055886946618557,0.14334626495838165,-0.021076196804642677,0.00051732431165874,0.0,0.036916300654411316,0.5284579992294312,0.7900967629485041,8.737224578857422,1.07610023021698,8.774140357971191,1.153457522392273,4.542966604232788,2.7567038536071777,,,,,,
8514008000.0,412.89,26.700000762939453,6529777152.0,3573.6447484053297,180.0,0.030486704781651497,2965504.0,3731.1941215991974,0.004418876022100449,0.042236328125,2.1132113933563232,-0.02044856548309326,0.14550215005874634,-0.02113211341202259,0.0006835469976067543,0.0,0.03896993771195412,0.5416390299797058,0.7120828178036602,8.681722640991211,0.8838042616844177,8.72069263458252,1.009433388710022,4.584675073623657,2.7902414798736572,,,,,,
8514008000.0,411.28,26.709999084472656,6529777152.0,3569.1947444765356,181.0,0.034073356539011,2981888.0,3735.784512758255,0.00242549367249012,0.0194091796875,2.13455867767334,-0.020543182268738747,0.12231422960758209,-0.021345585584640503,0.0008024023845791817,0.0,0.061075180768966675,0.48419708013534546,0.7766871233733751,8.845626831054688,0.9342976212501526,8.906702041625977,1.024627923965454,4.590391159057617,2.766261339187622,,,,,,
8514008000.0,406.58,26.5,6529777152.0,3574.055319641144,182.0,0.03328591212630272,2998272.0,3740.3686611652374,0.0033893382642418146,0.0330810546875,2.1397154331207275,-0.020888831466436386,0.1660841852426529,-0.02139715477824211,0.0005083195865154266,0.0,-0.0033623988274484873,0.5671616196632385,0.7119071692755703,8.830978393554688,0.9188331961631775,8.827615737915039,1.0566681623458862,4.584148406982422,2.7757513523101807,,,,,,
8514008000.0,401.85,24.93000030517578,6529777152.0,3619.3502056098355,183.0,0.028701266273856163,3014656.0,3744.8954405784607,0.004986966960132122,0.04931640625,2.1557302474975586,-0.01757032237946987,0.18546853959560394,-0.02155730500817299,0.003986981697380543,0.0,0.0048638153821229935,0.6087847352027893,0.7772011644466672,8.795007705688477,1.0871471166610718,8.799871444702148,1.2897508144378662,4.526779413223267,2.78713321685791,,,,,,
